#K-Path          Energy     s     py     pz     px    dxy    dyz    dz2    dxz  x2-y2    tot
# NKPTS & NBANDS: 300  24
# Band-Index    1
   0.00000    -19.467205  0.642  0.000  0.000  0.000  0.000  0.000  0.000  0.000  0.000  0.642
   0.01485    -19.466602  0.642  0.000  0.000  0.000  0.000  0.000  0.000  0.000  0.000  0.642
   0.02970    -19.464794  0.642  0.000  0.000  0.000  0.000  0.000  0.000  0.000  0.000  0.644
   0.04455    -19.461783  0.642  0.000  0.000  0.000  0.000  0.000  0.000  0.000  0.000  0.644
   0.05941    -19.457562  0.642  0.000  0.000  0.000  0.000  0.000  0.000  0.000  0.000  0.644
   0.07426    -19.452134  0.642  0.000  0.000  0.000  0.000  0.000  0.000  0.000  0.000  0.644
   0.08911    -19.445505  0.642  0.000  0.000  0.000  0.000  0.000  0.000  0.000  0.000  0.644
   0.10396    -19.437692  0.642  0.000  0.000  0.000  0.000  0.000  0.000  0.000  0.000  0.644
   0.11881    -19.428653  0.642  0.000  0.000  0.002  0.000  0.000  0.000  0.000  0.000  0.644
   0.13366    -19.418431  0.642  0.000  0.000  0.002  0.000  0.000  0.000  0.000  0.000  0.644
   0.14852    -19.406985  0.640  0.000  0.000  0.002  0.000  0.000  0.000  0.000  0.000  0.644
   0.16337    -19.394335  0.640  0.000  0.000  0.002  0.000  0.000  0.000  0.000  0.000  0.644
   0.17822    -19.380482  0.640  0.000  0.000  0.002  0.000  0.000  0.000  0.000  0.000  0.644
   0.19307    -19.365427  0.640  0.002  0.000  0.004  0.000  0.000  0.000  0.000  0.000  0.644
   0.20792    -19.349170  0.640  0.002  0.000  0.004  0.000  0.000  0.000  0.000  0.000  0.644
   0.22277    -19.331711  0.638  0.002  0.000  0.004  0.000  0.000  0.000  0.000  0.000  0.644
   0.23762    -19.313053  0.638  0.002  0.000  0.004  0.000  0.000  0.000  0.000  0.000  0.644
   0.25248    -19.293194  0.638  0.002  0.000  0.006  0.000  0.000  0.000  0.000  0.000  0.644
   0.26733    -19.272138  0.636  0.002  0.000  0.006  0.000  0.000  0.000  0.000  0.000  0.644
   0.28218    -19.249883  0.636  0.002  0.000  0.006  0.000  0.000  0.000  0.000  0.000  0.646
   0.29703    -19.226432  0.636  0.002  0.000  0.008  0.000  0.000  0.000  0.000  0.000  0.646
   0.31188    -19.201788  0.634  0.002  0.000  0.008  0.000  0.000  0.000  0.000  0.000  0.646
   0.32673    -19.175945  0.634  0.004  0.000  0.010  0.000  0.000  0.000  0.000  0.000  0.646
   0.34159    -19.148912  0.632  0.004  0.000  0.010  0.000  0.000  0.000  0.000  0.000  0.646
   0.35644    -19.120682  0.632  0.004  0.000  0.012  0.000  0.000  0.000  0.000  0.000  0.646
   0.37129    -19.091261  0.630  0.004  0.000  0.012  0.000  0.000  0.000  0.000  0.000  0.646
   0.38614    -19.060655  0.630  0.004  0.000  0.012  0.000  0.000  0.000  0.000  0.000  0.648
   0.40099    -19.028852  0.628  0.004  0.000  0.014  0.000  0.000  0.000  0.000  0.000  0.648
   0.41584    -18.995867  0.628  0.004  0.000  0.014  0.000  0.000  0.000  0.000  0.000  0.648
   0.43069    -18.961724  0.626  0.006  0.000  0.016  0.000  0.000  0.000  0.000  0.000  0.648
   0.44555    -18.926359  0.626  0.006  0.000  0.018  0.000  0.000  0.000  0.000  0.000  0.648
   0.46040    -18.889815  0.624  0.006  0.000  0.018  0.000  0.000  0.000  0.000  0.000  0.648
   0.47525    -18.852090  0.624  0.006  0.000  0.020  0.000  0.000  0.000  0.000  0.000  0.650
   0.49010    -18.813184  0.622  0.006  0.000  0.020  0.000  0.000  0.000  0.000  0.000  0.650
   0.50495    -18.773100  0.620  0.008  0.000  0.022  0.000  0.000  0.000  0.000  0.000  0.650
   0.51980    -18.731838  0.620  0.008  0.000  0.024  0.000  0.000  0.000  0.000  0.000  0.650
   0.53466    -18.689421  0.618  0.008  0.000  0.024  0.000  0.000  0.000  0.000  0.000  0.652
   0.54951    -18.645815  0.616  0.008  0.000  0.026  0.000  0.000  0.000  0.000  0.000  0.652
   0.56436    -18.601044  0.616  0.010  0.000  0.028  0.000  0.000  0.000  0.000  0.000  0.652
   0.57921    -18.555098  0.614  0.010  0.000  0.028  0.000  0.000  0.000  0.000  0.000  0.652
   0.59406    -18.507986  0.612  0.010  0.000  0.030  0.000  0.000  0.000  0.000  0.000  0.654
   0.60891    -18.459711  0.612  0.010  0.000  0.032  0.000  0.000  0.000  0.000  0.000  0.654
   0.62376    -18.410274  0.610  0.012  0.000  0.034  0.000  0.000  0.000  0.000  0.000  0.654
   0.63862    -18.359679  0.608  0.012  0.000  0.034  0.000  0.000  0.000  0.000  0.000  0.654
   0.65347    -18.307934  0.606  0.012  0.000  0.036  0.000  0.000  0.000  0.000  0.000  0.656
   0.66832    -18.255030  0.604  0.012  0.000  0.038  0.000  0.000  0.000  0.000  0.000  0.656
   0.68317    -18.200983  0.604  0.014  0.000  0.040  0.000  0.000  0.000  0.000  0.000  0.656
   0.69802    -18.145805  0.602  0.014  0.000  0.042  0.000  0.000  0.000  0.000  0.000  0.656
   0.71287    -18.089460  0.600  0.014  0.000  0.044  0.000  0.000  0.000  0.000  0.000  0.658
   0.72773    -18.031995  0.598  0.014  0.000  0.044  0.000  0.000  0.000  0.000  0.000  0.658
   0.74258    -17.973370  0.596  0.016  0.000  0.046  0.000  0.000  0.000  0.000  0.000  0.658
   0.75743    -17.913612  0.594  0.016  0.000  0.048  0.000  0.000  0.000  0.000  0.000  0.660
   0.77228    -17.852727  0.592  0.016  0.000  0.050  0.000  0.000  0.000  0.000  0.000  0.660
   0.78713    -17.790714  0.592  0.018  0.000  0.052  0.000  0.000  0.000  0.000  0.000  0.660
   0.80198    -17.727581  0.590  0.018  0.000  0.054  0.000  0.000  0.000  0.000  0.000  0.662
   0.81683    -17.663341  0.588  0.018  0.000  0.056  0.000  0.000  0.000  0.000  0.000  0.662
   0.83169    -17.597978  0.586  0.020  0.000  0.058  0.000  0.000  0.000  0.000  0.000  0.662
   0.84654    -17.531507  0.584  0.020  0.000  0.060  0.000  0.000  0.000  0.000  0.000  0.664
   0.86139    -17.463947  0.582  0.020  0.000  0.062  0.000  0.000  0.000  0.000  0.000  0.664
   0.87624    -17.395276  0.580  0.022  0.000  0.064  0.000  0.000  0.000  0.000  0.000  0.664
   0.89109    -17.325513  0.578  0.022  0.000  0.066  0.000  0.000  0.000  0.000  0.000  0.666
   0.90594    -17.254669  0.576  0.022  0.000  0.068  0.000  0.000  0.000  0.000  0.000  0.666
   0.92080    -17.182753  0.574  0.024  0.000  0.070  0.000  0.000  0.000  0.000  0.000  0.668
   0.93565    -17.109743  0.572  0.024  0.000  0.072  0.000  0.000  0.000  0.000  0.000  0.668
   0.95050    -17.035682  0.570  0.024  0.000  0.074  0.000  0.000  0.000  0.000  0.000  0.670
   0.96535    -16.960561  0.568  0.026  0.000  0.076  0.000  0.000  0.000  0.000  0.000  0.670
   0.98020    -16.884396  0.566  0.026  0.000  0.078  0.000  0.000  0.000  0.000  0.000  0.670
   0.99505    -16.807236  0.564  0.028  0.000  0.082  0.000  0.000  0.000  0.000  0.000  0.672
   1.00990    -16.729006  0.562  0.028  0.000  0.084  0.000  0.000  0.000  0.000  0.000  0.672
   1.02476    -16.649760  0.560  0.028  0.000  0.086  0.000  0.000  0.000  0.000  0.000  0.674
   1.03961    -16.569510  0.558  0.030  0.000  0.088  0.000  0.000  0.000  0.000  0.000  0.674
   1.05446    -16.488269  0.556  0.030  0.000  0.090  0.000  0.000  0.000  0.000  0.000  0.676
   1.06931    -16.406051  0.554  0.030  0.000  0.092  0.000  0.000  0.000  0.000  0.000  0.676
   1.08416    -16.322875  0.552  0.032  0.000  0.094  0.000  0.000  0.000  0.000  0.000  0.678
   1.09901    -16.238757  0.550  0.032  0.000  0.096  0.000  0.000  0.000  0.000  0.000  0.678
   1.11386    -16.153720  0.548  0.032  0.000  0.098  0.000  0.000  0.000  0.000  0.000  0.680
   1.12872    -16.067786  0.546  0.034  0.000  0.100  0.000  0.000  0.000  0.000  0.000  0.680
   1.14357    -15.980996  0.544  0.034  0.000  0.102  0.000  0.000  0.000  0.000  0.000  0.682
   1.15842    -15.893353  0.542  0.034  0.000  0.104  0.000  0.000  0.000  0.000  0.000  0.682
   1.17327    -15.804909  0.542  0.036  0.000  0.108  0.000  0.000  0.000  0.000  0.000  0.684
   1.18812    -15.715711  0.540  0.036  0.000  0.108  0.000  0.000  0.000  0.000  0.000  0.686
   1.20297    -15.625808  0.538  0.036  0.000  0.110  0.000  0.000  0.000  0.000  0.000  0.686
   1.21783    -15.535244  0.538  0.038  0.000  0.112  0.000  0.000  0.000  0.000  0.000  0.688
   1.23268    -15.444107  0.536  0.038  0.000  0.114  0.000  0.000  0.000  0.000  0.000  0.690
   1.24753    -15.352482  0.536  0.038  0.000  0.116  0.000  0.000  0.000  0.000  0.000  0.690
   1.26238    -15.260478  0.536  0.040  0.000  0.118  0.000  0.000  0.000  0.000  0.000  0.692
   1.27723    -15.168237  0.536  0.040  0.000  0.118  0.000  0.000  0.000  0.000  0.000  0.694
   1.29208    -15.075932  0.536  0.040  0.000  0.120  0.000  0.000  0.000  0.000  0.000  0.696
   1.30693    -14.983802  0.536  0.040  0.000  0.120  0.000  0.000  0.000  0.000  0.000  0.698
   1.32179    -14.892122  0.538  0.040  0.000  0.120  0.000  0.000  0.000  0.000  0.000  0.700
   1.33664    -14.801293  0.540  0.040  0.000  0.120  0.000  0.000  0.000  0.000  0.000  0.702
   1.35149    -14.711873  0.544  0.040  0.000  0.120  0.000  0.000  0.000  0.000  0.000  0.704
   1.36634    -14.624597  0.548  0.040  0.000  0.118  0.000  0.000  0.000  0.000  0.000  0.706
   1.38119    -14.540512  0.554  0.038  0.000  0.116  0.000  0.000  0.000  0.000  0.000  0.710
   1.39604    -14.461092  0.560  0.038  0.000  0.114  0.000  0.000  0.000  0.000  0.000  0.712
   1.41090    -14.388415  0.570  0.036  0.000  0.110  0.000  0.000  0.000  0.000  0.000  0.716
   1.42575    -14.325351  0.580  0.034  0.000  0.104  0.000  0.000  0.000  0.000  0.000  0.718
   1.44060    -14.275597  0.588  0.034  0.000  0.100  0.000  0.000  0.000  0.000  0.000  0.722
   1.45545    -14.243322  0.596  0.032  0.000  0.096  0.000  0.000  0.000  0.000  0.000  0.724
   1.47030    -14.232084  0.598  0.032  0.000  0.094  0.000  0.000  0.000  0.000  0.000  0.725
   1.47030    -14.232084  0.598  0.032  0.000  0.094  0.000  0.000  0.000  0.000  0.000  0.725
   1.47888    -14.231911  0.598  0.032  0.000  0.094  0.000  0.000  0.000  0.000  0.000  0.726
   1.48745    -14.231394  0.598  0.032  0.000  0.096  0.000  0.000  0.000  0.000  0.000  0.726
   1.49603    -14.230532  0.598  0.032  0.000  0.096  0.000  0.000  0.000  0.000  0.000  0.726
   1.50460    -14.229331  0.598  0.032  0.000  0.096  0.000  0.000  0.000  0.000  0.000  0.726
   1.51317    -14.227780  0.598  0.032  0.000  0.096  0.000  0.000  0.000  0.000  0.000  0.726
   1.52175    -14.225884  0.598  0.032  0.000  0.096  0.000  0.000  0.000  0.000  0.000  0.726
   1.53032    -14.223643  0.598  0.032  0.000  0.096  0.000  0.000  0.000  0.000  0.000  0.726
   1.53890    -14.221066  0.598  0.032  0.000  0.096  0.000  0.000  0.000  0.000  0.000  0.726
   1.54747    -14.218136  0.598  0.032  0.000  0.096  0.000  0.000  0.000  0.000  0.000  0.726
   1.55605    -14.214861  0.598  0.032  0.000  0.096  0.000  0.000  0.000  0.000  0.000  0.726
   1.56462    -14.211241  0.598  0.032  0.000  0.096  0.000  0.000  0.000  0.000  0.000  0.726
   1.57320    -14.207291  0.596  0.034  0.000  0.096  0.000  0.000  0.000  0.000  0.000  0.726
   1.58177    -14.202983  0.596  0.034  0.000  0.096  0.000  0.000  0.000  0.000  0.000  0.726
   1.59035    -14.198331  0.596  0.034  0.000  0.096  0.000  0.000  0.000  0.000  0.000  0.726
   1.59892    -14.193333  0.596  0.034  0.000  0.096  0.000  0.000  0.000  0.000  0.000  0.726
   1.60749    -14.187991  0.596  0.034  0.000  0.096  0.000  0.000  0.000  0.000  0.000  0.726
   1.61607    -14.182303  0.596  0.034  0.000  0.096  0.000  0.000  0.000  0.000  0.000  0.726
   1.62464    -14.176266  0.594  0.034  0.000  0.096  0.000  0.000  0.000  0.000  0.000  0.726
   1.63322    -14.169889  0.594  0.036  0.000  0.096  0.000  0.000  0.000  0.000  0.000  0.726
   1.64179    -14.163169  0.594  0.036  0.000  0.096  0.000  0.000  0.000  0.000  0.000  0.726
   1.65037    -14.156103  0.594  0.036  0.000  0.096  0.000  0.000  0.000  0.000  0.000  0.726
   1.65894    -14.148694  0.594  0.036  0.000  0.096  0.000  0.000  0.000  0.000  0.000  0.726
   1.66752    -14.140940  0.592  0.036  0.000  0.096  0.000  0.000  0.000  0.000  0.000  0.726
   1.67609    -14.132842  0.592  0.038  0.000  0.096  0.000  0.000  0.000  0.000  0.000  0.726
   1.68467    -14.124399  0.592  0.038  0.000  0.096  0.000  0.000  0.000  0.000  0.000  0.726
   1.69324    -14.115612  0.592  0.038  0.000  0.096  0.000  0.000  0.000  0.000  0.000  0.726
   1.70181    -14.106479  0.590  0.038  0.000  0.098  0.000  0.000  0.000  0.000  0.000  0.726
   1.71039    -14.097004  0.590  0.040  0.000  0.098  0.000  0.000  0.000  0.000  0.000  0.726
   1.71896    -14.087185  0.590  0.040  0.000  0.098  0.000  0.000  0.000  0.000  0.000  0.726
   1.72754    -14.077022  0.588  0.040  0.000  0.098  0.000  0.000  0.000  0.000  0.000  0.726
   1.73611    -14.066515  0.588  0.040  0.000  0.098  0.000  0.000  0.000  0.000  0.000  0.726
   1.74469    -14.055664  0.588  0.042  0.000  0.098  0.000  0.000  0.000  0.000  0.000  0.726
   1.75326    -14.044466  0.586  0.042  0.000  0.098  0.000  0.000  0.000  0.000  0.000  0.726
   1.76184    -14.032930  0.586  0.042  0.000  0.098  0.000  0.000  0.000  0.000  0.000  0.726
   1.77041    -14.021048  0.586  0.044  0.000  0.098  0.000  0.000  0.000  0.000  0.000  0.728
   1.77899    -14.008822  0.584  0.044  0.000  0.098  0.000  0.000  0.000  0.000  0.000  0.728
   1.78756    -13.996275  0.584  0.044  0.000  0.098  0.000  0.000  0.000  0.000  0.000  0.728
   1.79613    -13.983361  0.582  0.046  0.000  0.100  0.000  0.000  0.000  0.000  0.000  0.728
   1.80471    -13.970110  0.582  0.046  0.000  0.100  0.000  0.000  0.000  0.000  0.000  0.728
   1.81328    -13.956533  0.582  0.046  0.000  0.100  0.000  0.000  0.000  0.000  0.000  0.728
   1.82186    -13.942589  0.580  0.048  0.000  0.100  0.000  0.000  0.000  0.000  0.000  0.728
   1.83043    -13.928303  0.580  0.048  0.000  0.100  0.000  0.000  0.000  0.000  0.000  0.728
   1.83901    -13.913667  0.578  0.050  0.000  0.100  0.000  0.000  0.000  0.000  0.000  0.728
   1.84758    -13.898705  0.578  0.050  0.000  0.100  0.000  0.000  0.000  0.000  0.000  0.728
   1.85616    -13.883397  0.576  0.050  0.000  0.100  0.000  0.000  0.000  0.000  0.000  0.728
   1.86473    -13.867735  0.576  0.052  0.000  0.100  0.000  0.000  0.000  0.000  0.000  0.728
   1.87331    -13.851734  0.574  0.052  0.000  0.102  0.000  0.000  0.000  0.000  0.000  0.728
   1.88188    -13.835389  0.574  0.054  0.000  0.102  0.000  0.000  0.000  0.000  0.000  0.728
   1.89045    -13.818702  0.572  0.054  0.000  0.102  0.000  0.000  0.000  0.000  0.000  0.728
   1.89903    -13.801673  0.572  0.056  0.000  0.102  0.000  0.000  0.000  0.000  0.000  0.730
   1.90760    -13.784301  0.570  0.056  0.000  0.102  0.000  0.000  0.000  0.000  0.000  0.730
   1.91618    -13.766587  0.570  0.058  0.000  0.102  0.000  0.000  0.000  0.000  0.000  0.730
   1.92475    -13.748531  0.568  0.058  0.000  0.102  0.000  0.000  0.000  0.000  0.000  0.730
   1.93333    -13.730133  0.568  0.060  0.000  0.104  0.000  0.000  0.000  0.000  0.000  0.730
   1.94190    -13.711393  0.566  0.060  0.000  0.104  0.000  0.000  0.000  0.000  0.000  0.730
   1.95048    -13.692326  0.566  0.062  0.000  0.104  0.000  0.000  0.000  0.000  0.000  0.730
   1.95905    -13.672914  0.564  0.062  0.000  0.104  0.000  0.000  0.000  0.000  0.000  0.730
   1.96762    -13.653148  0.562  0.064  0.000  0.104  0.000  0.000  0.000  0.000  0.000  0.730
   1.97620    -13.633041  0.562  0.064  0.000  0.104  0.000  0.000  0.000  0.000  0.000  0.730
   1.98477    -13.612593  0.560  0.066  0.000  0.106  0.000  0.000  0.000  0.000  0.000  0.730
   1.99335    -13.591804  0.560  0.066  0.000  0.106  0.000  0.000  0.000  0.000  0.000  0.730
   2.00192    -13.570671  0.558  0.068  0.000  0.106  0.000  0.000  0.000  0.000  0.000  0.732
   2.01050    -13.549200  0.556  0.068  0.000  0.106  0.000  0.000  0.000  0.000  0.000  0.732
   2.01907    -13.527388  0.556  0.070  0.000  0.106  0.000  0.000  0.000  0.000  0.000  0.732
   2.02765    -13.505236  0.554  0.072  0.000  0.106  0.000  0.000  0.000  0.000  0.000  0.732
   2.03622    -13.482743  0.552  0.072  0.000  0.108  0.000  0.000  0.000  0.000  0.000  0.732
   2.04480    -13.459911  0.552  0.074  0.000  0.108  0.000  0.000  0.000  0.000  0.000  0.732
   2.05337    -13.436745  0.550  0.074  0.000  0.108  0.000  0.000  0.000  0.000  0.000  0.732
   2.06194    -13.413232  0.548  0.076  0.000  0.108  0.000  0.000  0.000  0.000  0.000  0.732
   2.07052    -13.389380  0.546  0.078  0.000  0.108  0.000  0.000  0.000  0.000  0.000  0.732
   2.07909    -13.365188  0.546  0.078  0.000  0.108  0.000  0.000  0.000  0.000  0.000  0.734
   2.08767    -13.340657  0.544  0.080  0.000  0.110  0.000  0.000  0.000  0.000  0.000  0.734
   2.09624    -13.315784  0.542  0.082  0.000  0.110  0.000  0.000  0.000  0.000  0.000  0.734
   2.10482    -13.290575  0.542  0.082  0.000  0.110  0.000  0.000  0.000  0.000  0.000  0.734
   2.11339    -13.265027  0.540  0.084  0.000  0.110  0.000  0.000  0.000  0.000  0.000  0.734
   2.12197    -13.239141  0.538  0.086  0.000  0.110  0.000  0.000  0.000  0.000  0.000  0.734
   2.13054    -13.212917  0.536  0.086  0.000  0.112  0.000  0.000  0.000  0.000  0.000  0.734
   2.13912    -13.186355  0.534  0.088  0.000  0.112  0.000  0.000  0.000  0.000  0.000  0.734
   2.14769    -13.159452  0.534  0.090  0.000  0.112  0.000  0.000  0.000  0.000  0.000  0.734
   2.15626    -13.132214  0.532  0.090  0.000  0.112  0.000  0.000  0.000  0.000  0.000  0.736
   2.16484    -13.104639  0.530  0.092  0.000  0.112  0.000  0.000  0.000  0.000  0.000  0.736
   2.17341    -13.076726  0.528  0.094  0.000  0.114  0.000  0.000  0.000  0.000  0.000  0.736
   2.18199    -13.048477  0.526  0.096  0.000  0.114  0.000  0.000  0.000  0.000  0.000  0.736
   2.19056    -13.019892  0.526  0.096  0.000  0.114  0.000  0.000  0.000  0.000  0.000  0.736
   2.19914    -12.990970  0.524  0.098  0.000  0.114  0.000  0.000  0.000  0.000  0.000  0.736
   2.20771    -12.961712  0.522  0.100  0.000  0.116  0.000  0.000  0.000  0.000  0.000  0.736
   2.21629    -12.932118  0.520  0.102  0.000  0.116  0.000  0.000  0.000  0.000  0.000  0.736
   2.22486    -12.902189  0.518  0.102  0.000  0.116  0.000  0.000  0.000  0.000  0.000  0.738
   2.23344    -12.871925  0.516  0.104  0.000  0.116  0.000  0.000  0.000  0.000  0.000  0.738
   2.24201    -12.841326  0.514  0.106  0.000  0.116  0.000  0.000  0.000  0.000  0.000  0.738
   2.25058    -12.810393  0.512  0.108  0.000  0.118  0.000  0.000  0.000  0.000  0.000  0.738
   2.25916    -12.779124  0.512  0.110  0.000  0.118  0.000  0.000  0.000  0.000  0.000  0.738
   2.26773    -12.747523  0.510  0.112  0.000  0.118  0.000  0.000  0.000  0.000  0.000  0.738
   2.27631    -12.715587  0.508  0.112  0.000  0.118  0.000  0.000  0.000  0.000  0.000  0.738
   2.28488    -12.683319  0.506  0.114  0.000  0.120  0.000  0.000  0.000  0.000  0.000  0.740
   2.29346    -12.650718  0.504  0.116  0.000  0.120  0.000  0.000  0.000  0.000  0.000  0.740
   2.30203    -12.617784  0.502  0.118  0.000  0.120  0.000  0.000  0.000  0.000  0.000  0.740
   2.31061    -12.584518  0.500  0.120  0.000  0.120  0.000  0.000  0.000  0.000  0.000  0.740
   2.31918    -12.550944  0.498  0.122  0.000  0.122  0.000  0.000  0.000  0.000  0.000  0.740
   2.31918    -12.550944  0.498  0.122  0.000  0.122  0.000  0.000  0.000  0.000  0.000  0.740
   2.33633    -12.622792  0.500  0.128  0.000  0.112  0.000  0.000  0.000  0.000  0.000  0.740
   2.35348    -12.702702  0.502  0.132  0.000  0.102  0.000  0.000  0.000  0.000  0.000  0.738
   2.37063    -12.789595  0.504  0.138  0.000  0.096  0.000  0.000  0.000  0.000  0.000  0.736
   2.38778    -12.882433  0.504  0.142  0.000  0.088  0.000  0.000  0.000  0.000  0.000  0.734
   2.40493    -12.980243  0.502  0.146  0.000  0.084  0.000  0.000  0.000  0.000  0.000  0.732
   2.42208    -13.082150  0.502  0.148  0.000  0.078  0.000  0.000  0.000  0.000  0.000  0.730
   2.43922    -13.187380  0.502  0.150  0.000  0.076  0.000  0.000  0.000  0.000  0.000  0.726
   2.45637    -13.295292  0.500  0.152  0.000  0.072  0.000  0.000  0.000  0.000  0.000  0.724
