#K-Path          Energy     s     py     pz     px    dxy    dyz    dz2    dxz  x2-y2    tot
# NKPTS & NBANDS: 420  42
# Band-Index    1
   0.00000    -18.742173  0.627  0.000  0.000  0.000  0.000  0.000  0.000  0.000  0.000  0.630
   0.01138    -18.741801  0.627  0.000  0.000  0.000  0.000  0.000  0.000  0.000  0.000  0.630
   0.02277    -18.741096  0.627  0.000  0.000  0.000  0.000  0.000  0.000  0.000  0.000  0.630
   0.03415    -18.739937  0.627  0.000  0.000  0.000  0.000  0.000  0.000  0.000  0.000  0.630
   0.04554    -18.738290  0.630  0.000  0.000  0.000  0.000  0.000  0.000  0.000  0.000  0.630
   0.05692    -18.736108  0.630  0.000  0.000  0.000  0.000  0.000  0.000  0.000  0.000  0.630
   0.06831    -18.733524  0.630  0.000  0.000  0.000  0.000  0.000  0.000  0.000  0.000  0.630
   0.07969    -18.730472  0.630  0.000  0.000  0.000  0.000  0.000  0.000  0.000  0.000  0.630
   0.09108    -18.726953  0.630  0.000  0.000  0.000  0.000  0.000  0.000  0.000  0.000  0.630
   0.10246    -18.722969  0.630  0.000  0.000  0.000  0.000  0.000  0.000  0.000  0.000  0.630
   0.11385    -18.718522  0.630  0.000  0.000  0.000  0.000  0.000  0.000  0.000  0.000  0.630
   0.12523    -18.713681  0.630  0.000  0.000  0.000  0.000  0.000  0.000  0.000  0.000  0.630
   0.13661    -18.708292  0.630  0.000  0.000  0.000  0.000  0.000  0.000  0.000  0.000  0.630
   0.14800    -18.702471  0.630  0.000  0.000  0.000  0.000  0.000  0.000  0.000  0.000  0.633
   0.15938    -18.696081  0.630  0.000  0.000  0.000  0.000  0.000  0.000  0.000  0.000  0.633
   0.17077    -18.689185  0.633  0.000  0.000  0.000  0.000  0.000  0.000  0.000  0.000  0.633
   0.18215    -18.682012  0.633  0.000  0.000  0.000  0.000  0.000  0.000  0.000  0.000  0.633
   0.19354    -18.674332  0.633  0.000  0.000  0.000  0.000  0.000  0.000  0.000  0.000  0.633
   0.20492    -18.666171  0.633  0.000  0.000  0.000  0.000  0.000  0.000  0.000  0.000  0.633
   0.21631    -18.657657  0.633  0.000  0.000  0.000  0.000  0.000  0.000  0.000  0.000  0.636
   0.22769    -18.648726  0.636  0.000  0.000  0.000  0.000  0.000  0.000  0.000  0.000  0.636
   0.23907    -18.639350  0.636  0.000  0.000  0.000  0.000  0.000  0.000  0.000  0.000  0.636
   0.25046    -18.629653  0.636  0.000  0.000  0.000  0.000  0.000  0.000  0.000  0.000  0.636
   0.26184    -18.619489  0.636  0.000  0.000  0.000  0.000  0.000  0.000  0.000  0.000  0.639
   0.27323    -18.608868  0.639  0.000  0.000  0.000  0.000  0.000  0.000  0.000  0.000  0.639
   0.28461    -18.597837  0.639  0.000  0.000  0.000  0.000  0.000  0.000  0.000  0.000  0.639
   0.29600    -18.586456  0.639  0.000  0.000  0.000  0.000  0.000  0.000  0.000  0.000  0.642
   0.30738    -18.574700  0.642  0.000  0.000  0.000  0.000  0.000  0.000  0.000  0.000  0.642
   0.31877    -18.562468  0.642  0.000  0.000  0.000  0.000  0.000  0.000  0.000  0.000  0.642
   0.33015    -18.549837  0.642  0.000  0.000  0.000  0.000  0.000  0.000  0.000  0.000  0.645
   0.34154    -18.536755  0.645  0.000  0.000  0.000  0.000  0.000  0.000  0.000  0.000  0.645
   0.35292    -18.523376  0.645  0.000  0.000  0.000  0.000  0.000  0.000  0.000  0.000  0.645
   0.36430    -18.509697  0.645  0.000  0.000  0.000  0.000  0.000  0.000  0.000  0.000  0.648
   0.37569    -18.495587  0.645  0.000  0.000  0.000  0.000  0.000  0.000  0.000  0.000  0.648
   0.38707    -18.481196  0.648  0.000  0.000  0.000  0.000  0.000  0.000  0.000  0.000  0.648
   0.39846    -18.466387  0.648  0.000  0.000  0.000  0.000  0.000  0.000  0.000  0.000  0.651
   0.40984    -18.451240  0.651  0.000  0.000  0.000  0.000  0.000  0.000  0.000  0.000  0.651
   0.42123    -18.435762  0.648  0.000  0.000  0.000  0.000  0.000  0.000  0.000  0.000  0.654
   0.43261    -18.419964  0.651  0.000  0.000  0.000  0.000  0.000  0.000  0.000  0.000  0.651
   0.44400    -18.403854  0.654  0.000  0.000  0.000  0.000  0.000  0.000  0.000  0.000  0.654
   0.45538    -18.387300  0.654  0.000  0.000  0.000  0.000  0.000  0.000  0.000  0.000  0.657
   0.46676    -18.370599  0.657  0.000  0.000  0.000  0.000  0.000  0.000  0.000  0.000  0.657
   0.47815    -18.353668  0.657  0.000  0.000  0.000  0.000  0.000  0.000  0.000  0.000  0.660
   0.48953    -18.336421  0.660  0.000  0.000  0.000  0.000  0.000  0.000  0.000  0.000  0.660
   0.50092    -18.318887  0.660  0.000  0.000  0.000  0.000  0.000  0.000  0.000  0.000  0.660
   0.51230    -18.301151  0.660  0.000  0.000  0.000  0.000  0.000  0.000  0.000  0.000  0.666
   0.52369    -18.283123  0.663  0.000  0.000  0.000  0.000  0.000  0.000  0.000  0.000  0.666
   0.53507    -18.265068  0.663  0.000  0.000  0.000  0.000  0.000  0.000  0.000  0.000  0.666
   0.54646    -18.246724  0.663  0.000  0.000  0.000  0.000  0.000  0.000  0.000  0.000  0.669
   0.55784    -18.228224  0.669  0.000  0.000  0.000  0.000  0.000  0.000  0.000  0.000  0.669
   0.56923    -18.209602  0.669  0.000  0.000  0.000  0.000  0.000  0.000  0.000  0.000  0.672
   0.58061    -18.190906  0.669  0.000  0.000  0.000  0.000  0.000  0.000  0.000  0.000  0.672
   0.59199    -18.172293  0.672  0.000  0.000  0.000  0.000  0.000  0.000  0.000  0.000  0.675
   0.60338    -18.153654  0.672  0.000  0.000  0.000  0.000  0.000  0.000  0.000  0.000  0.678
   0.61476    -18.135110  0.675  0.000  0.000  0.000  0.000  0.000  0.000  0.000  0.000  0.678
   0.62615    -18.117094  0.678  0.000  0.000  0.000  0.000  0.000  0.000  0.000  0.000  0.681
   0.63753    -18.100029  0.678  0.000  0.000  0.000  0.000  0.000  0.000  0.000  0.000  0.684
   0.64892    -18.084828  0.681  0.000  0.000  0.000  0.000  0.000  0.000  0.000  0.000  0.684
   0.66030    -18.073508  0.684  0.000  0.000  0.000  0.000  0.000  0.000  0.000  0.000  0.684
   0.67169    -18.069089  0.684  0.000  0.000  0.000  0.000  0.000  0.000  0.000  0.000  0.687
   0.67169    -18.069089  0.684  0.000  0.000  0.000  0.000  0.000  0.000  0.000  0.000  0.687
   0.68126    -18.068997  0.684  0.000  0.000  0.000  0.000  0.000  0.000  0.000  0.000  0.687
   0.69083    -18.068744  0.684  0.000  0.000  0.000  0.000  0.000  0.000  0.000  0.000  0.686
   0.70040    -18.068419  0.684  0.000  0.000  0.000  0.000  0.000  0.000  0.000  0.000  0.685
   0.70998    -18.067852  0.684  0.000  0.000  0.000  0.000  0.000  0.000  0.000  0.000  0.685
   0.71955    -18.067066  0.684  0.000  0.000  0.000  0.000  0.000  0.000  0.000  0.000  0.685
   0.72912    -18.066027  0.685  0.000  0.000  0.000  0.000  0.000  0.000  0.000  0.000  0.685
   0.73869    -18.064849  0.684  0.000  0.000  0.000  0.000  0.000  0.000  0.000  0.000  0.685
   0.74827    -18.063481  0.684  0.000  0.000  0.000  0.000  0.000  0.000  0.000  0.000  0.686
   0.75784    -18.061973  0.684  0.000  0.000  0.000  0.000  0.000  0.000  0.000  0.000  0.687
   0.76741    -18.060260  0.685  0.000  0.000  0.000  0.000  0.000  0.000  0.000  0.000  0.686
   0.77698    -18.058401  0.685  0.000  0.000  0.000  0.000  0.000  0.000  0.000  0.000  0.687
   0.78656    -18.056371  0.684  0.000  0.000  0.000  0.000  0.000  0.000  0.000  0.000  0.687
   0.79613    -18.054122  0.685  0.000  0.000  0.000  0.000  0.000  0.000  0.000  0.000  0.688
   0.80570    -18.051696  0.686  0.000  0.000  0.000  0.000  0.000  0.000  0.000  0.000  0.688
   0.81527    -18.049183  0.687  0.000  0.000  0.000  0.000  0.000  0.000  0.000  0.000  0.688
   0.82485    -18.046549  0.686  0.000  0.000  0.000  0.000  0.000  0.000  0.000  0.000  0.689
   0.83442    -18.043692  0.687  0.000  0.000  0.000  0.000  0.000  0.000  0.000  0.000  0.688
   0.84399    -18.040580  0.686  0.000  0.000  0.000  0.000  0.000  0.000  0.000  0.000  0.689
   0.85356    -18.037484  0.687  0.000  0.000  0.000  0.000  0.000  0.000  0.000  0.000  0.690
   0.86314    -18.034277  0.687  0.000  0.000  0.000  0.000  0.000  0.000  0.000  0.000  0.690
   0.87271    -18.030877  0.688  0.000  0.000  0.000  0.000  0.000  0.000  0.000  0.000  0.690
   0.88228    -18.027319  0.688  0.000  0.000  0.000  0.000  0.000  0.000  0.000  0.000  0.691
   0.89186    -18.023617  0.689  0.000  0.000  0.000  0.000  0.000  0.000  0.000  0.000  0.690
   0.90143    -18.019890  0.689  0.000  0.000  0.000  0.000  0.000  0.000  0.000  0.000  0.691
   0.91100    -18.015995  0.689  0.000  0.000  0.000  0.000  0.000  0.000  0.000  0.000  0.691
   0.92057    -18.012062  0.690  0.000  0.000  0.000  0.000  0.000  0.000  0.000  0.000  0.691
   0.93015    -18.007907  0.690  0.000  0.000  0.000  0.000  0.000  0.000  0.000  0.000  0.691
   0.93972    -18.003819  0.691  0.000  0.000  0.000  0.000  0.000  0.000  0.000  0.000  0.692
   0.94929    -17.999526  0.692  0.000  0.000  0.000  0.000  0.000  0.000  0.000  0.000  0.692
   0.95886    -17.995263  0.691  0.000  0.000  0.000  0.000  0.000  0.000  0.000  0.000  0.692
   0.96844    -17.990937  0.691  0.000  0.000  0.000  0.000  0.000  0.000  0.000  0.000  0.694
   0.97801    -17.986570  0.691  0.000  0.000  0.000  0.000  0.000  0.000  0.000  0.000  0.695
   0.98758    -17.982187  0.691  0.000  0.000  0.000  0.000  0.000  0.000  0.000  0.000  0.696
   0.99715    -17.977719  0.693  0.000  0.000  0.000  0.000  0.000  0.000  0.000  0.000  0.696
   1.00673    -17.973294  0.693  0.000  0.000  0.000  0.000  0.000  0.000  0.000  0.000  0.695
   1.01630    -17.968785  0.694  0.000  0.000  0.000  0.000  0.000  0.000  0.000  0.000  0.696
   1.02587    -17.964331  0.694  0.000  0.000  0.000  0.000  0.000  0.000  0.000  0.000  0.698
   1.03544    -17.959899  0.694  0.000  0.000  0.000  0.000  0.000  0.000  0.000  0.000  0.698
   1.04502    -17.955539  0.695  0.000  0.000  0.000  0.000  0.000  0.000  0.000  0.000  0.699
   1.05459    -17.951181  0.695  0.000  0.000  0.000  0.000  0.000  0.000  0.000  0.000  0.699
   1.06416    -17.946905  0.697  0.000  0.000  0.000  0.000  0.000  0.000  0.000  0.000  0.698
   1.07373    -17.942699  0.696  0.000  0.000  0.000  0.000  0.000  0.000  0.000  0.000  0.699
   1.08331    -17.938599  0.697  0.000  0.000  0.000  0.000  0.000  0.000  0.000  0.000  0.700
   1.09288    -17.934640  0.697  0.000  0.000  0.000  0.000  0.000  0.000  0.000  0.000  0.701
   1.10245    -17.930729  0.698  0.000  0.000  0.000  0.000  0.000  0.000  0.000  0.000  0.700
   1.11202    -17.926990  0.699  0.000  0.000  0.000  0.000  0.000  0.000  0.000  0.000  0.700
   1.12160    -17.923403  0.698  0.000  0.000  0.000  0.000  0.000  0.000  0.000  0.000  0.702
   1.13117    -17.920065  0.699  0.000  0.000  0.000  0.000  0.000  0.000  0.000  0.000  0.701
   1.14074    -17.916880  0.700  0.000  0.000  0.000  0.000  0.000  0.000  0.000  0.000  0.702
   1.15032    -17.913827  0.700  0.000  0.000  0.000  0.000  0.000  0.000  0.000  0.000  0.701
   1.15989    -17.910997  0.701  0.000  0.000  0.000  0.000  0.000  0.000  0.000  0.000  0.701
   1.16946    -17.908420  0.700  0.000  0.000  0.000  0.000  0.000  0.000  0.000  0.000  0.702
   1.17903    -17.906010  0.701  0.000  0.000  0.000  0.000  0.000  0.000  0.000  0.000  0.702
   1.18861    -17.903892  0.701  0.000  0.000  0.000  0.000  0.000  0.000  0.000  0.000  0.704
   1.19818    -17.902019  0.701  0.000  0.000  0.000  0.000  0.000  0.000  0.000  0.000  0.705
   1.20775    -17.900439  0.702  0.000  0.000  0.000  0.000  0.000  0.000  0.000  0.000  0.704
   1.21732    -17.899074  0.702  0.000  0.000  0.000  0.000  0.000  0.000  0.000  0.000  0.703
   1.22690    -17.898027  0.701  0.000  0.000  0.000  0.000  0.000  0.000  0.000  0.000  0.704
   1.23647    -17.897247  0.702  0.000  0.000  0.000  0.000  0.000  0.000  0.000  0.000  0.703
   1.23647    -17.897247  0.702  0.000  0.000  0.000  0.000  0.000  0.000  0.000  0.000  0.703
   1.24588    -17.896710  0.701  0.000  0.000  0.000  0.000  0.000  0.000  0.000  0.000  0.703
   1.25529    -17.896517  0.701  0.000  0.000  0.000  0.000  0.000  0.000  0.000  0.000  0.705
   1.26470    -17.896603  0.702  0.000  0.000  0.000  0.000  0.000  0.000  0.000  0.000  0.704
   1.27411    -17.896955  0.701  0.000  0.000  0.000  0.000  0.000  0.000  0.000  0.000  0.705
   1.28351    -17.897633  0.701  0.000  0.000  0.000  0.000  0.000  0.000  0.000  0.000  0.705
   1.29292    -17.898548  0.700  0.000  0.000  0.000  0.000  0.000  0.000  0.000  0.000  0.704
   1.30233    -17.899692  0.701  0.000  0.000  0.000  0.000  0.000  0.000  0.000  0.000  0.704
   1.31174    -17.901082  0.701  0.000  0.000  0.000  0.000  0.000  0.000  0.000  0.000  0.704
   1.32115    -17.902709  0.702  0.000  0.000  0.000  0.000  0.000  0.000  0.000  0.000  0.704
   1.33056    -17.904575  0.701  0.000  0.000  0.000  0.000  0.000  0.000  0.000  0.000  0.704
   1.33997    -17.906691  0.700  0.000  0.000  0.000  0.000  0.000  0.000  0.000  0.000  0.703
   1.34938    -17.909001  0.700  0.000  0.000  0.000  0.000  0.000  0.000  0.000  0.000  0.702
   1.35879    -17.911388  0.699  0.000  0.000  0.000  0.000  0.000  0.000  0.000  0.000  0.703
   1.36820    -17.914105  0.699  0.000  0.000  0.000  0.000  0.000  0.000  0.000  0.000  0.702
   1.37761    -17.916907  0.698  0.000  0.000  0.000  0.000  0.000  0.000  0.000  0.000  0.702
   1.38702    -17.919898  0.699  0.000  0.000  0.000  0.000  0.000  0.000  0.000  0.000  0.703
   1.39642    -17.922939  0.699  0.000  0.000  0.000  0.000  0.000  0.000  0.000  0.000  0.700
   1.40583    -17.926144  0.697  0.000  0.000  0.000  0.000  0.000  0.000  0.000  0.000  0.700
   1.41524    -17.929439  0.696  0.000  0.000  0.000  0.000  0.000  0.000  0.000  0.000  0.700
   1.42465    -17.932873  0.696  0.000  0.000  0.000  0.000  0.000  0.000  0.000  0.000  0.700
   1.43406    -17.936341  0.697  0.000  0.000  0.000  0.000  0.000  0.000  0.000  0.000  0.700
   1.44347    -17.939884  0.696  0.000  0.000  0.000  0.000  0.000  0.000  0.000  0.000  0.699
   1.45288    -17.943425  0.696  0.000  0.000  0.000  0.000  0.000  0.000  0.000  0.000  0.699
   1.46229    -17.947045  0.696  0.000  0.000  0.000  0.000  0.000  0.000  0.000  0.000  0.699
   1.47170    -17.950665  0.695  0.000  0.000  0.000  0.000  0.000  0.000  0.000  0.000  0.697
   1.48111    -17.954254  0.694  0.000  0.000  0.000  0.000  0.000  0.000  0.000  0.000  0.697
   1.49052    -17.957905  0.694  0.000  0.000  0.000  0.000  0.000  0.000  0.000  0.000  0.696
   1.49993    -17.961545  0.695  0.000  0.000  0.000  0.000  0.000  0.000  0.000  0.000  0.696
   1.50933    -17.965165  0.694  0.000  0.000  0.000  0.000  0.000  0.000  0.000  0.000  0.695
   1.51874    -17.968753  0.693  0.000  0.000  0.000  0.000  0.000  0.000  0.000  0.000  0.695
   1.52815    -17.972289  0.693  0.000  0.000  0.000  0.000  0.000  0.000  0.000  0.000  0.696
   1.53756    -17.975754  0.692  0.000  0.000  0.000  0.000  0.000  0.000  0.000  0.000  0.695
   1.54697    -17.979162  0.693  0.000  0.000  0.000  0.000  0.000  0.000  0.000  0.000  0.693
   1.55638    -17.982535  0.691  0.000  0.000  0.000  0.000  0.000  0.000  0.000  0.000  0.693
   1.56579    -17.985852  0.691  0.000  0.000  0.000  0.000  0.000  0.000  0.000  0.000  0.694
   1.57520    -17.989061  0.690  0.000  0.000  0.000  0.000  0.000  0.000  0.000  0.000  0.695
   1.58461    -17.992190  0.690  0.000  0.000  0.000  0.000  0.000  0.000  0.000  0.000  0.693
   1.59402    -17.995161  0.691  0.000  0.000  0.000  0.000  0.000  0.000  0.000  0.000  0.693
   1.60343    -17.998079  0.690  0.000  0.000  0.000  0.000  0.000  0.000  0.000  0.000  0.694
   1.61284    -18.000905  0.689  0.000  0.000  0.000  0.000  0.000  0.000  0.000  0.000  0.692
   1.62225    -18.003624  0.688  0.000  0.000  0.000  0.000  0.000  0.000  0.000  0.000  0.691
   1.63165    -18.006283  0.690  0.000  0.000  0.000  0.000  0.000  0.000  0.000  0.000  0.691
   1.64106    -18.008743  0.689  0.000  0.000  0.000  0.000  0.000  0.000  0.000  0.000  0.691
   1.65047    -18.011086  0.689  0.000  0.000  0.000  0.000  0.000  0.000  0.000  0.000  0.691
   1.65988    -18.013259  0.688  0.000  0.000  0.000  0.000  0.000  0.000  0.000  0.000  0.690
   1.66929    -18.015334  0.688  0.000  0.000  0.000  0.000  0.000  0.000  0.000  0.000  0.690
   1.67870    -18.017251  0.687  0.000  0.000  0.000  0.000  0.000  0.000  0.000  0.000  0.691
   1.68811    -18.019090  0.687  0.000  0.000  0.000  0.000  0.000  0.000  0.000  0.000  0.689
   1.69752    -18.020681  0.688  0.000  0.000  0.000  0.000  0.000  0.000  0.000  0.000  0.690
   1.70693    -18.022179  0.687  0.000  0.000  0.000  0.000  0.000  0.000  0.000  0.000  0.690
   1.71634    -18.023525  0.687  0.000  0.000  0.000  0.000  0.000  0.000  0.000  0.000  0.691
   1.72575    -18.024623  0.688  0.000  0.000  0.000  0.000  0.000  0.000  0.000  0.000  0.690
   1.73516    -18.025662  0.687  0.000  0.000  0.000  0.000  0.000  0.000  0.000  0.000  0.690
   1.74456    -18.026551  0.686  0.000  0.000  0.000  0.000  0.000  0.000  0.000  0.000  0.689
   1.75397    -18.027285  0.687  0.000  0.000  0.000  0.000  0.000  0.000  0.000  0.000  0.689
   1.76338    -18.027828  0.687  0.000  0.000  0.000  0.000  0.000  0.000  0.000  0.000  0.688
   1.77279    -18.028230  0.686  0.000  0.000  0.000  0.000  0.000  0.000  0.000  0.000  0.688
   1.78220    -18.028415  0.687  0.000  0.000  0.000  0.000  0.000  0.000  0.000  0.000  0.688
   1.79161    -18.028505  0.687  0.000  0.000  0.000  0.000  0.000  0.000  0.000  0.000  0.688
   1.79161    -18.028505  0.687  0.000  0.000  0.000  0.000  0.000  0.000  0.000  0.000  0.688
   1.80321    -18.036514  0.685  0.000  0.000  0.000  0.000  0.000  0.000  0.000  0.000  0.688
   1.81481    -18.052968  0.683  0.000  0.000  0.000  0.000  0.000  0.000  0.000  0.000  0.687
   1.82640    -18.071704  0.681  0.000  0.000  0.000  0.000  0.000  0.000  0.000  0.000  0.683
   1.83800    -18.091099  0.679  0.000  0.000  0.000  0.000  0.000  0.000  0.000  0.000  0.682
   1.84960    -18.110739  0.678  0.000  0.000  0.000  0.000  0.000  0.000  0.000  0.000  0.679
   1.86120    -18.130434  0.676  0.000  0.000  0.000  0.000  0.000  0.000  0.000  0.000  0.678
   1.87279    -18.150141  0.674  0.000  0.000  0.000  0.000  0.000  0.000  0.000  0.000  0.677
   1.88439    -18.169812  0.673  0.000  0.000  0.000  0.000  0.000  0.000  0.000  0.000  0.675
   1.89599    -18.189325  0.670  0.000  0.000  0.000  0.000  0.000  0.000  0.000  0.000  0.673
   1.90759    -18.208633  0.669  0.000  0.000  0.000  0.000  0.000  0.000  0.000  0.000  0.672
   1.91918    -18.227753  0.668  0.000  0.000  0.000  0.000  0.000  0.000  0.000  0.000  0.669
   1.93078    -18.246740  0.667  0.000  0.000  0.000  0.000  0.000  0.000  0.000  0.000  0.668
   1.94238    -18.265513  0.665  0.000  0.000  0.000  0.000  0.000  0.000  0.000  0.000  0.667
   1.95398    -18.284103  0.664  0.000  0.000  0.000  0.000  0.000  0.000  0.000  0.000  0.665
   1.96557    -18.302402  0.661  0.000  0.000  0.000  0.000  0.000  0.000  0.000  0.000  0.664
   1.97717    -18.320495  0.661  0.000  0.000  0.000  0.000  0.000  0.000  0.000  0.000  0.663
   1.98877    -18.338291  0.658  0.000  0.000  0.000  0.000  0.000  0.000  0.000  0.000  0.662
   2.00037    -18.355863  0.657  0.000  0.000  0.000  0.000  0.000  0.000  0.000  0.000  0.660
   2.01196    -18.373107  0.655  0.000  0.000  0.000  0.000  0.000  0.000  0.000  0.000  0.659
   2.02356    -18.390073  0.654  0.000  0.000  0.000  0.000  0.000  0.000  0.000  0.000  0.657
   2.03516    -18.406767  0.653  0.000  0.000  0.000  0.000  0.000  0.000  0.000  0.000  0.657
   2.04676    -18.423088  0.652  0.000  0.000  0.000  0.000  0.000  0.000  0.000  0.000  0.654
   2.05835    -18.439061  0.652  0.000  0.000  0.000  0.000  0.000  0.000  0.000  0.000  0.652
   2.06995    -18.454744  0.650  0.000  0.000  0.000  0.000  0.000  0.000  0.000  0.000  0.651
   2.08155    -18.470061  0.648  0.000  0.000  0.000  0.000  0.000  0.000  0.000  0.000  0.650
   2.09315    -18.485031  0.648  0.000  0.000  0.000  0.000  0.000  0.000  0.000  0.000  0.648
   2.10474    -18.499670  0.647  0.000  0.000  0.000  0.000  0.000  0.000  0.000  0.000  0.649
   2.11634    -18.513959  0.645  0.000  0.000  0.000  0.000  0.000  0.000  0.000  0.000  0.648
