#K-Path          Energy     s     py     pz     px    dxy    dyz    dz2    dxz  x2-y2    tot
# NKPTS & NBANDS: 420  40
# Band-Index    1
   0.00000    -18.764713  0.107  0.000  0.007  0.000  0.000  0.000  0.000  0.000  0.000  0.114
   0.01138    -18.764341  0.107  0.000  0.007  0.000  0.000  0.000  0.000  0.000  0.000  0.114
   0.02277    -18.763636  0.107  0.000  0.007  0.000  0.000  0.000  0.000  0.000  0.000  0.114
   0.03415    -18.762477  0.107  0.000  0.007  0.000  0.000  0.000  0.000  0.000  0.000  0.114
   0.04554    -18.760831  0.107  0.000  0.007  0.000  0.000  0.000  0.000  0.000  0.000  0.114
   0.05692    -18.758649  0.107  0.000  0.007  0.000  0.000  0.000  0.000  0.000  0.000  0.114
   0.06831    -18.756064  0.107  0.000  0.007  0.000  0.000  0.000  0.000  0.000  0.000  0.114
   0.07969    -18.753012  0.107  0.000  0.007  0.000  0.000  0.000  0.000  0.000  0.000  0.114
   0.09107    -18.749494  0.107  0.000  0.007  0.000  0.000  0.000  0.000  0.000  0.000  0.114
   0.10246    -18.745510  0.107  0.000  0.007  0.000  0.000  0.000  0.000  0.000  0.000  0.114
   0.11384    -18.741063  0.106  0.000  0.007  0.000  0.000  0.000  0.000  0.000  0.000  0.114
   0.12523    -18.736223  0.106  0.000  0.007  0.000  0.000  0.000  0.000  0.000  0.000  0.113
   0.13661    -18.730834  0.105  0.000  0.007  0.000  0.000  0.000  0.000  0.000  0.000  0.112
   0.14799    -18.725013  0.105  0.000  0.007  0.000  0.000  0.000  0.000  0.000  0.000  0.112
   0.15938    -18.718623  0.105  0.000  0.007  0.000  0.000  0.000  0.000  0.000  0.000  0.112
   0.17076    -18.711727  0.105  0.000  0.007  0.000  0.000  0.000  0.000  0.000  0.000  0.112
   0.18215    -18.704554  0.104  0.000  0.007  0.000  0.000  0.000  0.000  0.000  0.000  0.112
   0.19353    -18.696875  0.103  0.000  0.008  0.000  0.000  0.000  0.000  0.000  0.000  0.112
   0.20492    -18.688714  0.103  0.000  0.009  0.000  0.000  0.000  0.000  0.000  0.000  0.112
   0.21630    -18.680200  0.103  0.000  0.009  0.000  0.000  0.000  0.000  0.000  0.000  0.111
   0.22768    -18.671270  0.102  0.000  0.009  0.000  0.000  0.000  0.000  0.000  0.000  0.110
   0.23907    -18.661895  0.101  0.000  0.009  0.000  0.000  0.000  0.000  0.000  0.000  0.110
   0.25045    -18.652198  0.101  0.000  0.009  0.000  0.000  0.000  0.000  0.000  0.000  0.110
   0.26184    -18.642034  0.100  0.000  0.009  0.000  0.000  0.000  0.000  0.000  0.000  0.110
   0.27322    -18.631414  0.100  0.000  0.009  0.000  0.000  0.000  0.000  0.000  0.000  0.109
   0.28461    -18.620382  0.099  0.000  0.009  0.000  0.000  0.000  0.000  0.000  0.000  0.109
   0.29599    -18.609003  0.098  0.000  0.009  0.000  0.000  0.000  0.000  0.000  0.000  0.108
   0.30737    -18.597247  0.097  0.000  0.011  0.000  0.000  0.000  0.000  0.000  0.000  0.108
   0.31876    -18.585015  0.097  0.000  0.011  0.000  0.000  0.000  0.000  0.000  0.000  0.107
   0.33014    -18.572385  0.096  0.000  0.011  0.000  0.000  0.000  0.000  0.000  0.000  0.107
   0.34153    -18.559303  0.095  0.000  0.011  0.000  0.000  0.000  0.000  0.000  0.000  0.107
   0.35291    -18.545924  0.094  0.000  0.011  0.000  0.000  0.000  0.000  0.000  0.000  0.105
   0.36429    -18.532246  0.094  0.000  0.011  0.000  0.000  0.000  0.000  0.000  0.000  0.105
   0.37568    -18.518137  0.092  0.000  0.012  0.000  0.000  0.000  0.000  0.000  0.000  0.105
   0.38706    -18.503746  0.092  0.000  0.012  0.000  0.000  0.000  0.000  0.000  0.000  0.104
   0.39845    -18.488938  0.090  0.000  0.012  0.000  0.000  0.000  0.000  0.000  0.000  0.103
   0.40983    -18.473791  0.090  0.000  0.013  0.000  0.000  0.000  0.000  0.000  0.000  0.103
   0.42122    -18.458314  0.088  0.000  0.013  0.000  0.000  0.000  0.000  0.000  0.000  0.102
   0.43260    -18.442516  0.088  0.000  0.014  0.000  0.000  0.000  0.000  0.000  0.000  0.102
   0.44398    -18.426407  0.087  0.000  0.014  0.000  0.000  0.000  0.000  0.000  0.000  0.100
   0.45537    -18.409853  0.086  0.000  0.014  0.000  0.000  0.000  0.000  0.000  0.000  0.100
   0.46675    -18.393153  0.085  0.000  0.014  0.000  0.000  0.000  0.000  0.000  0.000  0.099
   0.47814    -18.376223  0.083  0.000  0.014  0.000  0.000  0.000  0.000  0.000  0.000  0.099
   0.48952    -18.358976  0.083  0.000  0.015  0.000  0.000  0.000  0.000  0.000  0.000  0.098
   0.50091    -18.341442  0.081  0.000  0.015  0.000  0.000  0.000  0.000  0.000  0.000  0.097
   0.51229    -18.323707  0.081  0.000  0.016  0.000  0.000  0.000  0.000  0.000  0.000  0.096
   0.52367    -18.305680  0.079  0.000  0.016  0.000  0.000  0.000  0.000  0.000  0.000  0.096
   0.53506    -18.287626  0.078  0.000  0.017  0.000  0.000  0.000  0.000  0.000  0.000  0.095
   0.54644    -18.269282  0.076  0.000  0.017  0.000  0.000  0.000  0.000  0.000  0.000  0.094
   0.55783    -18.250783  0.076  0.000  0.017  0.000  0.000  0.000  0.000  0.000  0.000  0.094
   0.56921    -18.232162  0.075  0.000  0.018  0.000  0.000  0.000  0.000  0.000  0.000  0.093
   0.58059    -18.213467  0.073  0.000  0.018  0.000  0.000  0.000  0.000  0.000  0.000  0.092
   0.59198    -18.194854  0.072  0.000  0.018  0.000  0.000  0.000  0.000  0.000  0.000  0.091
   0.60336    -18.176216  0.071  0.000  0.018  0.000  0.000  0.000  0.000  0.000  0.000  0.089
   0.61475    -18.157673  0.069  0.000  0.019  0.000  0.000  0.000  0.000  0.000  0.000  0.089
   0.62613    -18.139659  0.068  0.000  0.019  0.000  0.000  0.000  0.001  0.000  0.000  0.088
   0.63752    -18.122596  0.066  0.000  0.020  0.000  0.000  0.000  0.001  0.000  0.000  0.086
   0.64890    -18.107397  0.065  0.000  0.020  0.000  0.000  0.000  0.001  0.000  0.000  0.085
   0.66028    -18.096080  0.063  0.000  0.020  0.000  0.000  0.000  0.001  0.000  0.000  0.084
   0.67167    -18.091663  0.063  0.000  0.020  0.000  0.000  0.000  0.001  0.000  0.000  0.084
   0.67167    -18.091663  0.063  0.000  0.020  0.000  0.000  0.000  0.001  0.000  0.000  0.084
   0.68124    -18.091570  0.063  0.000  0.020  0.000  0.000  0.000  0.001  0.000  0.000  0.084
   0.69081    -18.091318  0.063  0.000  0.020  0.000  0.000  0.000  0.001  0.000  0.000  0.084
   0.70039    -18.090992  0.063  0.000  0.020  0.000  0.000  0.000  0.001  0.000  0.000  0.084
   0.70996    -18.090426  0.063  0.000  0.020  0.000  0.000  0.000  0.001  0.000  0.000  0.084
   0.71953    -18.089639  0.063  0.000  0.020  0.000  0.000  0.000  0.001  0.000  0.000  0.084
   0.72910    -18.088600  0.063  0.000  0.020  0.000  0.000  0.000  0.001  0.000  0.000  0.084
   0.73868    -18.087422  0.062  0.000  0.020  0.000  0.000  0.000  0.001  0.000  0.000  0.084
   0.74825    -18.086054  0.062  0.000  0.020  0.000  0.000  0.000  0.001  0.000  0.000  0.084
   0.75782    -18.084545  0.062  0.000  0.020  0.000  0.000  0.000  0.001  0.000  0.000  0.084
   0.76740    -18.082831  0.062  0.000  0.020  0.000  0.000  0.000  0.001  0.000  0.000  0.084
   0.77697    -18.080972  0.062  0.000  0.020  0.000  0.000  0.000  0.001  0.000  0.000  0.083
   0.78654    -18.078942  0.062  0.000  0.020  0.000  0.000  0.000  0.001  0.000  0.000  0.083
   0.79611    -18.076692  0.062  0.000  0.020  0.000  0.000  0.000  0.001  0.000  0.000  0.083
   0.80569    -18.074266  0.061  0.000  0.019  0.001  0.000  0.000  0.001  0.000  0.000  0.082
   0.81526    -18.071752  0.061  0.000  0.019  0.001  0.000  0.000  0.001  0.000  0.000  0.082
   0.82483    -18.069117  0.060  0.000  0.019  0.001  0.000  0.000  0.001  0.000  0.000  0.082
   0.83440    -18.066259  0.060  0.000  0.019  0.001  0.000  0.000  0.001  0.000  0.000  0.082
   0.84398    -18.063147  0.060  0.000  0.019  0.001  0.000  0.000  0.001  0.000  0.000  0.082
   0.85355    -18.060050  0.060  0.000  0.019  0.001  0.000  0.000  0.001  0.000  0.000  0.082
   0.86312    -18.056842  0.060  0.000  0.019  0.001  0.000  0.000  0.001  0.000  0.000  0.082
   0.87269    -18.053441  0.059  0.000  0.019  0.001  0.000  0.000  0.001  0.000  0.000  0.082
   0.88227    -18.049882  0.059  0.000  0.019  0.001  0.000  0.000  0.001  0.000  0.000  0.081
   0.89184    -18.046178  0.059  0.000  0.019  0.002  0.000  0.000  0.001  0.000  0.000  0.081
   0.90141    -18.042450  0.059  0.000  0.019  0.002  0.000  0.000  0.001  0.000  0.000  0.081
   0.91099    -18.038553  0.058  0.000  0.019  0.002  0.000  0.000  0.001  0.000  0.000  0.081
   0.92056    -18.034619  0.058  0.000  0.019  0.002  0.000  0.000  0.001  0.000  0.000  0.081
   0.93013    -18.030463  0.058  0.000  0.019  0.002  0.000  0.000  0.000  0.000  0.000  0.081
   0.93970    -18.026373  0.057  0.000  0.019  0.002  0.000  0.000  0.000  0.000  0.000  0.080
   0.94928    -18.022078  0.057  0.000  0.019  0.002  0.000  0.000  0.000  0.000  0.000  0.080
   0.95885    -18.017813  0.057  0.000  0.019  0.003  0.000  0.000  0.000  0.000  0.000  0.080
   0.96842    -18.013485  0.056  0.000  0.019  0.003  0.000  0.000  0.000  0.000  0.000  0.080
   0.97799    -18.009116  0.056  0.000  0.019  0.003  0.000  0.000  0.000  0.000  0.000  0.080
   0.98757    -18.004731  0.055  0.000  0.019  0.003  0.000  0.000  0.000  0.000  0.000  0.079
   0.99714    -18.000261  0.055  0.000  0.019  0.003  0.000  0.000  0.000  0.000  0.000  0.079
   1.00671    -17.995833  0.055  0.000  0.019  0.003  0.000  0.000  0.000  0.000  0.000  0.079
   1.01628    -17.991322  0.054  0.000  0.019  0.004  0.000  0.000  0.000  0.000  0.000  0.079
   1.02586    -17.986866  0.054  0.000  0.019  0.004  0.000  0.000  0.000  0.000  0.000  0.078
   1.03543    -17.982432  0.053  0.000  0.019  0.004  0.000  0.000  0.001  0.000  0.000  0.078
   1.04500    -17.978069  0.053  0.000  0.019  0.004  0.000  0.000  0.001  0.000  0.000  0.078
   1.05458    -17.973708  0.052  0.001  0.019  0.004  0.000  0.000  0.001  0.000  0.000  0.077
   1.06415    -17.969429  0.052  0.001  0.019  0.004  0.000  0.000  0.001  0.000  0.000  0.077
   1.07372    -17.965220  0.051  0.001  0.019  0.005  0.000  0.000  0.001  0.000  0.000  0.077
   1.08329    -17.961117  0.051  0.001  0.019  0.005  0.000  0.000  0.001  0.000  0.000  0.077
   1.09287    -17.957155  0.050  0.001  0.019  0.005  0.000  0.000  0.001  0.000  0.000  0.076
   1.10244    -17.953241  0.050  0.001  0.018  0.005  0.000  0.000  0.001  0.000  0.000  0.076
   1.11201    -17.949498  0.050  0.001  0.018  0.005  0.000  0.000  0.001  0.000  0.000  0.076
   1.12158    -17.945908  0.050  0.001  0.018  0.005  0.000  0.000  0.001  0.000  0.000  0.075
   1.13116    -17.942567  0.049  0.001  0.017  0.005  0.000  0.000  0.001  0.000  0.000  0.075
   1.14073    -17.939379  0.049  0.001  0.017  0.006  0.000  0.000  0.001  0.000  0.000  0.075
   1.15030    -17.936323  0.048  0.001  0.017  0.006  0.000  0.000  0.001  0.000  0.000  0.075
   1.15987    -17.933490  0.048  0.002  0.017  0.006  0.000  0.000  0.001  0.000  0.000  0.075
   1.16945    -17.930910  0.048  0.002  0.017  0.006  0.000  0.000  0.001  0.000  0.000  0.075
   1.17902    -17.928496  0.048  0.002  0.017  0.006  0.000  0.000  0.001  0.000  0.000  0.075
   1.18859    -17.926376  0.047  0.002  0.017  0.006  0.000  0.000  0.001  0.000  0.000  0.075
   1.19817    -17.924500  0.047  0.002  0.017  0.006  0.000  0.000  0.001  0.000  0.000  0.074
   1.20774    -17.922917  0.047  0.002  0.017  0.006  0.000  0.000  0.001  0.000  0.000  0.074
   1.21731    -17.921549  0.047  0.003  0.016  0.006  0.000  0.000  0.001  0.000  0.000  0.074
   1.22688    -17.920500  0.047  0.003  0.016  0.006  0.000  0.000  0.001  0.000  0.000  0.075
   1.23646    -17.919718  0.046  0.003  0.016  0.006  0.000  0.000  0.001  0.000  0.000  0.075
   1.23646    -17.919718  0.046  0.005  0.016  0.004  0.001  0.000  0.001  0.000  0.000  0.075
   1.24587    -17.919178  0.047  0.005  0.016  0.004  0.001  0.000  0.001  0.000  0.000  0.074
   1.25527    -17.918983  0.047  0.005  0.016  0.004  0.001  0.000  0.001  0.000  0.000  0.074
   1.26468    -17.919068  0.046  0.005  0.016  0.004  0.001  0.000  0.001  0.000  0.000  0.074
   1.27409    -17.919418  0.046  0.005  0.016  0.005  0.001  0.000  0.001  0.000  0.000  0.074
   1.28350    -17.920095  0.047  0.005  0.015  0.005  0.001  0.000  0.001  0.000  0.000  0.075
   1.29291    -17.921009  0.047  0.005  0.015  0.005  0.001  0.000  0.001  0.000  0.000  0.075
   1.30232    -17.922152  0.047  0.005  0.015  0.005  0.001  0.000  0.000  0.000  0.000  0.075
   1.31173    -17.923541  0.047  0.005  0.015  0.006  0.001  0.000  0.000  0.000  0.000  0.075
   1.32114    -17.925168  0.047  0.005  0.015  0.006  0.001  0.000  0.000  0.000  0.000  0.075
   1.33055    -17.927033  0.047  0.006  0.015  0.006  0.001  0.000  0.000  0.000  0.000  0.075
   1.33996    -17.929149  0.047  0.006  0.014  0.007  0.001  0.000  0.000  0.000  0.000  0.075
   1.34937    -17.931459  0.048  0.005  0.014  0.007  0.001  0.000  0.000  0.000  0.000  0.076
   1.35878    -17.933847  0.048  0.005  0.014  0.008  0.001  0.000  0.000  0.000  0.000  0.076
   1.36819    -17.936564  0.048  0.005  0.014  0.008  0.001  0.000  0.000  0.000  0.000  0.076
   1.37760    -17.939367  0.049  0.005  0.014  0.008  0.001  0.000  0.000  0.000  0.000  0.076
   1.38700    -17.942358  0.049  0.005  0.014  0.008  0.001  0.000  0.000  0.000  0.000  0.076
   1.39641    -17.945400  0.049  0.005  0.013  0.008  0.001  0.000  0.000  0.000  0.000  0.076
   1.40582    -17.948606  0.050  0.005  0.013  0.009  0.000  0.000  0.000  0.000  0.000  0.076
   1.41523    -17.951902  0.050  0.005  0.013  0.009  0.000  0.000  0.000  0.000  0.000  0.077
   1.42464    -17.955337  0.050  0.005  0.013  0.009  0.000  0.000  0.000  0.000  0.000  0.077
   1.43405    -17.958806  0.050  0.004  0.013  0.009  0.000  0.000  0.000  0.000  0.000  0.078
   1.44346    -17.962350  0.051  0.004  0.013  0.009  0.000  0.000  0.000  0.000  0.000  0.078
   1.45287    -17.965894  0.051  0.004  0.013  0.009  0.000  0.000  0.000  0.000  0.000  0.078
   1.46228    -17.969515  0.051  0.004  0.012  0.010  0.000  0.000  0.000  0.000  0.000  0.078
   1.47169    -17.973136  0.052  0.004  0.012  0.010  0.000  0.000  0.000  0.000  0.000  0.079
   1.48110    -17.976727  0.052  0.004  0.012  0.010  0.000  0.000  0.000  0.000  0.000  0.079
   1.49051    -17.980380  0.052  0.004  0.012  0.010  0.000  0.000  0.000  0.000  0.000  0.079
   1.49992    -17.984022  0.053  0.004  0.012  0.009  0.000  0.000  0.000  0.000  0.000  0.079
   1.50932    -17.987643  0.053  0.004  0.012  0.009  0.000  0.000  0.000  0.000  0.000  0.079
   1.51873    -17.991233  0.053  0.002  0.012  0.009  0.000  0.000  0.000  0.000  0.000  0.079
   1.52814    -17.994770  0.053  0.002  0.012  0.010  0.000  0.000  0.000  0.000  0.000  0.080
   1.53755    -17.998271  0.054  0.002  0.012  0.010  0.000  0.000  0.000  0.000  0.000  0.080
   1.54696    -18.001647  0.055  0.002  0.011  0.010  0.000  0.000  0.000  0.000  0.000  0.080
   1.55637    -18.005065  0.055  0.002  0.011  0.010  0.000  0.000  0.000  0.000  0.000  0.081
   1.56578    -18.008342  0.056  0.002  0.011  0.010  0.000  0.000  0.000  0.000  0.000  0.081
   1.57519    -18.011597  0.056  0.002  0.011  0.010  0.000  0.000  0.000  0.000  0.000  0.081
   1.58460    -18.014684  0.056  0.002  0.011  0.010  0.000  0.000  0.000  0.000  0.000  0.081
   1.59401    -18.017657  0.056  0.002  0.011  0.010  0.000  0.000  0.000  0.000  0.000  0.082
   1.60342    -18.020577  0.057  0.002  0.011  0.010  0.000  0.000  0.000  0.000  0.000  0.082
   1.61283    -18.023405  0.057  0.002  0.011  0.010  0.000  0.000  0.000  0.000  0.000  0.082
   1.62224    -18.026126  0.057  0.002  0.011  0.011  0.000  0.000  0.000  0.000  0.000  0.082
   1.63165    -18.028787  0.057  0.002  0.011  0.011  0.000  0.000  0.000  0.000  0.000  0.082
   1.64105    -18.031249  0.057  0.002  0.011  0.011  0.000  0.000  0.000  0.000  0.000  0.082
   1.65046    -18.033594  0.058  0.002  0.011  0.011  0.000  0.000  0.000  0.000  0.000  0.082
   1.65987    -18.035769  0.058  0.001  0.011  0.011  0.000  0.000  0.000  0.000  0.000  0.082
   1.66928    -18.037847  0.058  0.001  0.011  0.011  0.000  0.000  0.000  0.000  0.000  0.082
   1.67869    -18.039765  0.058  0.001  0.011  0.011  0.000  0.000  0.000  0.000  0.000  0.083
   1.68810    -18.041607  0.058  0.001  0.010  0.011  0.000  0.000  0.000  0.000  0.000  0.083
   1.69751    -18.043200  0.058  0.001  0.010  0.011  0.000  0.000  0.000  0.000  0.000  0.083
   1.70692    -18.044700  0.059  0.001  0.010  0.011  0.000  0.000  0.000  0.000  0.000  0.083
   1.71633    -18.046048  0.059  0.001  0.010  0.011  0.000  0.000  0.000  0.000  0.000  0.083
   1.72574    -18.047148  0.059  0.001  0.010  0.011  0.000  0.000  0.000  0.000  0.000  0.083
   1.73515    -18.048189  0.059  0.001  0.010  0.011  0.000  0.000  0.000  0.000  0.000  0.083
   1.74456    -18.049081  0.059  0.001  0.010  0.011  0.000  0.000  0.000  0.000  0.000  0.083
   1.75397    -18.049817  0.059  0.001  0.010  0.011  0.000  0.000  0.000  0.000  0.000  0.083
   1.76338    -18.050361  0.059  0.001  0.010  0.011  0.000  0.000  0.000  0.000  0.000  0.083
   1.77278    -18.050765  0.059  0.001  0.010  0.011  0.000  0.000  0.000  0.000  0.000  0.083
   1.78219    -18.050969  0.059  0.001  0.010  0.011  0.000  0.000  0.000  0.000  0.000  0.083
   1.79160    -18.051044  0.059  0.001  0.010  0.011  0.000  0.000  0.000  0.000  0.000  0.083
   1.79160    -18.051044  0.059  0.001  0.010  0.011  0.000  0.000  0.000  0.000  0.000  0.083
   1.80320    -18.059051  0.060  0.002  0.011  0.011  0.000  0.000  0.000  0.000  0.000  0.084
   1.81480    -18.075504  0.061  0.002  0.011  0.010  0.000  0.000  0.000  0.000  0.000  0.085
   1.82640    -18.094240  0.063  0.003  0.010  0.009  0.000  0.000  0.000  0.000  0.000  0.086
   1.83799    -18.113634  0.065  0.003  0.009  0.010  0.000  0.000  0.000  0.000  0.000  0.087
   1.84959    -18.133274  0.066  0.003  0.010  0.009  0.000  0.000  0.000  0.000  0.000  0.088
   1.86119    -18.152969  0.066  0.003  0.010  0.009  0.000  0.000  0.000  0.000  0.000  0.089
   1.87279    -18.172675  0.068  0.003  0.010  0.009  0.000  0.000  0.000  0.000  0.000  0.089
   1.88438    -18.192347  0.070  0.003  0.010  0.008  0.000  0.000  0.000  0.000  0.000  0.090
   1.89598    -18.211860  0.071  0.003  0.009  0.008  0.000  0.000  0.000  0.000  0.000  0.091
   1.90758    -18.231168  0.072  0.003  0.009  0.008  0.000  0.000  0.000  0.000  0.000  0.092
   1.91918    -18.250288  0.073  0.003  0.009  0.008  0.000  0.000  0.000  0.000  0.000  0.093
   1.93077    -18.269275  0.075  0.003  0.009  0.008  0.000  0.000  0.000  0.000  0.000  0.094
   1.94237    -18.288048  0.076  0.003  0.009  0.007  0.000  0.000  0.000  0.000  0.000  0.095
   1.95397    -18.306638  0.077  0.003  0.009  0.007  0.000  0.000  0.000  0.000  0.000  0.095
   1.96557    -18.324937  0.078  0.003  0.009  0.007  0.000  0.000  0.000  0.000  0.000  0.097
   1.97716    -18.343031  0.080  0.002  0.009  0.006  0.000  0.000  0.000  0.000  0.000  0.097
   1.98876    -18.360826  0.081  0.002  0.009  0.006  0.000  0.000  0.000  0.000  0.000  0.098
   2.00036    -18.378398  0.082  0.002  0.009  0.006  0.000  0.000  0.000  0.000  0.000  0.098
   2.01196    -18.395642  0.083  0.002  0.009  0.005  0.000  0.000  0.000  0.000  0.000  0.100
   2.02356    -18.412609  0.085  0.002  0.009  0.005  0.000  0.000  0.000  0.000  0.000  0.100
   2.03515    -18.429303  0.085  0.002  0.008  0.005  0.000  0.000  0.000  0.000  0.000  0.101
   2.04675    -18.445624  0.087  0.002  0.008  0.005  0.000  0.000  0.000  0.000  0.000  0.101
   2.05835    -18.461597  0.088  0.002  0.007  0.005  0.000  0.000  0.000  0.000  0.000  0.102
   2.06995    -18.477281  0.089  0.001  0.007  0.005  0.000  0.000  0.000  0.000  0.000  0.103
   2.08154    -18.492598  0.090  0.001  0.007  0.005  0.000  0.000  0.000  0.000  0.000  0.103
   2.09314    -18.507568  0.090  0.001  0.007  0.004  0.000  0.000  0.000  0.000  0.000  0.105
   2.10474    -18.522207  0.092  0.001  0.007  0.004  0.000  0.000  0.000  0.000  0.000  0.105
   2.11634    -18.536496  0.092  0.001  0.007  0.004  0.000  0.000  0.000  0.000  0.000  0.105
