#K-Path          Energy     s     py     pz     px    dxy    dyz    dz2    dxz  x2-y2    tot
# NKPTS & NBANDS: 420  40
# Band-Index    1
   0.00000    -18.764713  0.046  0.000  0.000  0.000  0.000  0.000  0.000  0.000  0.000  0.046
   0.01138    -18.764341  0.046  0.000  0.000  0.000  0.000  0.000  0.000  0.000  0.000  0.046
   0.02277    -18.763636  0.046  0.000  0.000  0.000  0.000  0.000  0.000  0.000  0.000  0.046
   0.03415    -18.762477  0.046  0.000  0.000  0.000  0.000  0.000  0.000  0.000  0.000  0.046
   0.04554    -18.760831  0.046  0.000  0.000  0.000  0.000  0.000  0.000  0.000  0.000  0.046
   0.05692    -18.758649  0.046  0.000  0.000  0.000  0.000  0.000  0.000  0.000  0.000  0.046
   0.06831    -18.756064  0.046  0.000  0.000  0.000  0.000  0.000  0.000  0.000  0.000  0.046
   0.07969    -18.753012  0.046  0.000  0.000  0.000  0.000  0.000  0.000  0.000  0.000  0.046
   0.09107    -18.749494  0.046  0.000  0.000  0.000  0.000  0.000  0.000  0.000  0.000  0.046
   0.10246    -18.745510  0.046  0.000  0.000  0.000  0.000  0.000  0.000  0.000  0.000  0.046
   0.11384    -18.741063  0.046  0.000  0.000  0.000  0.000  0.000  0.000  0.000  0.000  0.046
   0.12523    -18.736223  0.046  0.000  0.000  0.000  0.000  0.000  0.000  0.000  0.000  0.046
   0.13661    -18.730834  0.046  0.000  0.000  0.000  0.000  0.000  0.000  0.000  0.000  0.046
   0.14799    -18.725013  0.046  0.000  0.000  0.000  0.000  0.000  0.000  0.000  0.000  0.046
   0.15938    -18.718623  0.046  0.000  0.000  0.000  0.000  0.000  0.000  0.000  0.000  0.046
   0.17076    -18.711727  0.046  0.000  0.000  0.000  0.000  0.000  0.000  0.000  0.000  0.046
   0.18215    -18.704554  0.045  0.000  0.000  0.000  0.000  0.000  0.000  0.000  0.000  0.046
   0.19353    -18.696875  0.045  0.000  0.001  0.000  0.000  0.000  0.000  0.000  0.000  0.046
   0.20492    -18.688714  0.045  0.000  0.002  0.000  0.000  0.000  0.000  0.000  0.000  0.046
   0.21630    -18.680200  0.044  0.000  0.002  0.000  0.000  0.000  0.000  0.000  0.000  0.046
   0.22768    -18.671270  0.044  0.000  0.002  0.000  0.000  0.000  0.000  0.000  0.000  0.046
   0.23907    -18.661895  0.044  0.000  0.002  0.000  0.000  0.000  0.000  0.000  0.000  0.046
   0.25045    -18.652198  0.044  0.000  0.002  0.000  0.000  0.000  0.000  0.000  0.000  0.046
   0.26184    -18.642034  0.044  0.000  0.002  0.000  0.000  0.000  0.000  0.000  0.000  0.046
   0.27322    -18.631414  0.044  0.000  0.002  0.000  0.000  0.000  0.000  0.000  0.000  0.046
   0.28461    -18.620382  0.043  0.000  0.002  0.000  0.000  0.000  0.000  0.000  0.000  0.046
   0.29599    -18.609002  0.043  0.000  0.002  0.000  0.000  0.000  0.000  0.000  0.000  0.045
   0.30737    -18.597247  0.042  0.000  0.002  0.000  0.000  0.000  0.000  0.000  0.000  0.045
   0.31876    -18.585014  0.042  0.000  0.002  0.000  0.000  0.000  0.000  0.000  0.000  0.045
   0.33014    -18.572385  0.042  0.000  0.002  0.000  0.000  0.000  0.000  0.000  0.000  0.045
   0.34153    -18.559303  0.042  0.000  0.002  0.000  0.000  0.000  0.000  0.000  0.000  0.045
   0.35291    -18.545924  0.041  0.000  0.004  0.000  0.000  0.000  0.000  0.000  0.000  0.045
   0.36429    -18.532246  0.041  0.000  0.004  0.000  0.000  0.000  0.000  0.000  0.000  0.045
   0.37568    -18.518137  0.041  0.000  0.004  0.000  0.000  0.000  0.000  0.000  0.000  0.045
   0.38706    -18.503746  0.040  0.000  0.004  0.000  0.000  0.000  0.000  0.000  0.000  0.045
   0.39845    -18.488938  0.040  0.000  0.004  0.000  0.000  0.000  0.000  0.000  0.000  0.045
   0.40983    -18.473791  0.039  0.000  0.004  0.000  0.000  0.000  0.000  0.000  0.000  0.045
   0.42122    -18.458314  0.039  0.000  0.004  0.000  0.000  0.000  0.000  0.000  0.000  0.044
   0.43260    -18.442516  0.039  0.000  0.004  0.000  0.000  0.000  0.000  0.000  0.000  0.044
   0.44398    -18.426406  0.039  0.000  0.004  0.000  0.000  0.000  0.000  0.000  0.000  0.043
   0.45537    -18.409853  0.038  0.000  0.005  0.000  0.000  0.000  0.000  0.000  0.000  0.043
   0.46675    -18.393153  0.037  0.000  0.006  0.000  0.000  0.000  0.001  0.000  0.000  0.043
   0.47814    -18.376223  0.037  0.000  0.006  0.000  0.000  0.000  0.001  0.000  0.000  0.043
   0.48952    -18.358976  0.037  0.000  0.006  0.000  0.000  0.000  0.001  0.000  0.000  0.043
   0.50091    -18.341442  0.037  0.000  0.006  0.000  0.000  0.000  0.001  0.000  0.000  0.043
   0.51229    -18.323707  0.035  0.000  0.006  0.000  0.000  0.000  0.001  0.000  0.000  0.043
   0.52367    -18.305679  0.035  0.000  0.006  0.000  0.000  0.000  0.001  0.000  0.000  0.043
   0.53506    -18.287625  0.035  0.000  0.007  0.000  0.000  0.000  0.001  0.000  0.000  0.042
   0.54644    -18.269282  0.034  0.000  0.007  0.000  0.000  0.000  0.001  0.000  0.000  0.042
   0.55783    -18.250783  0.034  0.000  0.008  0.000  0.000  0.000  0.001  0.000  0.000  0.042
   0.56921    -18.232162  0.034  0.000  0.008  0.000  0.000  0.000  0.001  0.000  0.000  0.042
   0.58059    -18.213466  0.033  0.000  0.008  0.000  0.000  0.000  0.001  0.000  0.000  0.042
   0.59198    -18.194853  0.033  0.000  0.008  0.000  0.000  0.000  0.001  0.000  0.000  0.041
   0.60336    -18.176215  0.031  0.000  0.009  0.000  0.000  0.000  0.001  0.000  0.000  0.041
   0.61475    -18.157672  0.031  0.000  0.009  0.000  0.000  0.000  0.001  0.000  0.000  0.042
   0.62613    -18.139658  0.031  0.000  0.009  0.000  0.000  0.000  0.001  0.000  0.000  0.041
   0.63752    -18.122595  0.030  0.000  0.009  0.000  0.000  0.000  0.001  0.000  0.000  0.040
   0.64890    -18.107396  0.030  0.000  0.010  0.000  0.000  0.000  0.001  0.000  0.000  0.041
   0.66028    -18.096079  0.029  0.000  0.010  0.000  0.000  0.000  0.001  0.000  0.000  0.041
   0.67167    -18.091661  0.029  0.000  0.010  0.000  0.000  0.000  0.001  0.000  0.000  0.040
   0.67167    -18.091661  0.029  0.000  0.010  0.000  0.000  0.000  0.001  0.000  0.000  0.040
   0.68124    -18.091568  0.029  0.000  0.010  0.000  0.000  0.000  0.001  0.000  0.000  0.040
   0.69081    -18.091316  0.029  0.000  0.010  0.000  0.000  0.000  0.001  0.000  0.000  0.040
   0.70039    -18.090990  0.029  0.000  0.010  0.000  0.000  0.000  0.001  0.000  0.000  0.040
   0.70996    -18.090424  0.029  0.000  0.010  0.000  0.000  0.000  0.001  0.000  0.000  0.040
   0.71953    -18.089637  0.029  0.000  0.010  0.000  0.000  0.000  0.001  0.000  0.000  0.040
   0.72910    -18.088598  0.029  0.000  0.010  0.000  0.000  0.000  0.001  0.000  0.000  0.040
   0.73868    -18.087420  0.029  0.000  0.010  0.000  0.000  0.000  0.001  0.000  0.000  0.040
   0.74825    -18.086052  0.029  0.000  0.010  0.000  0.000  0.000  0.001  0.000  0.000  0.040
   0.75782    -18.084544  0.029  0.000  0.010  0.000  0.000  0.000  0.001  0.000  0.000  0.040
   0.76740    -18.082830  0.028  0.000  0.010  0.000  0.000  0.000  0.001  0.000  0.000  0.040
   0.77697    -18.080970  0.028  0.000  0.010  0.000  0.000  0.000  0.001  0.000  0.000  0.040
   0.78654    -18.078940  0.028  0.000  0.010  0.000  0.000  0.000  0.001  0.000  0.000  0.040
   0.79611    -18.076691  0.028  0.000  0.010  0.000  0.000  0.000  0.001  0.000  0.000  0.040
   0.80569    -18.074265  0.028  0.000  0.010  0.000  0.000  0.000  0.001  0.000  0.000  0.040
   0.81526    -18.071751  0.028  0.000  0.010  0.001  0.000  0.000  0.001  0.000  0.000  0.040
   0.82483    -18.069116  0.027  0.000  0.010  0.001  0.000  0.000  0.001  0.001  0.000  0.040
   0.83440    -18.066259  0.027  0.000  0.010  0.001  0.000  0.000  0.001  0.001  0.000  0.041
   0.84398    -18.063147  0.027  0.000  0.010  0.001  0.001  0.000  0.001  0.001  0.000  0.041
   0.85355    -18.060050  0.027  0.000  0.010  0.001  0.001  0.000  0.001  0.001  0.000  0.041
   0.86312    -18.056843  0.027  0.000  0.010  0.001  0.001  0.000  0.001  0.001  0.000  0.041
   0.87269    -18.053442  0.027  0.000  0.010  0.001  0.001  0.000  0.001  0.001  0.000  0.041
   0.88227    -18.049883  0.027  0.000  0.010  0.001  0.001  0.000  0.001  0.001  0.000  0.041
   0.89184    -18.046181  0.027  0.000  0.010  0.001  0.001  0.000  0.001  0.001  0.000  0.041
   0.90141    -18.042453  0.027  0.000  0.010  0.001  0.001  0.000  0.001  0.001  0.000  0.041
   0.91099    -18.038556  0.026  0.000  0.009  0.001  0.001  0.000  0.001  0.001  0.000  0.041
   0.92056    -18.034624  0.026  0.000  0.008  0.002  0.001  0.000  0.001  0.001  0.000  0.041
   0.93013    -18.030468  0.026  0.000  0.008  0.002  0.001  0.000  0.001  0.002  0.000  0.041
   0.93970    -18.026379  0.025  0.000  0.008  0.002  0.001  0.000  0.001  0.002  0.000  0.041
   0.94928    -18.022084  0.025  0.000  0.008  0.002  0.001  0.000  0.001  0.002  0.000  0.041
   0.95885    -18.017821  0.025  0.000  0.008  0.002  0.001  0.000  0.001  0.002  0.000  0.041
   0.96842    -18.013494  0.025  0.000  0.008  0.002  0.002  0.000  0.001  0.002  0.000  0.041
   0.97799    -18.009125  0.025  0.000  0.008  0.002  0.002  0.000  0.001  0.002  0.001  0.042
   0.98757    -18.004742  0.024  0.000  0.008  0.002  0.002  0.000  0.001  0.002  0.001  0.042
   0.99714    -18.000272  0.024  0.000  0.008  0.003  0.002  0.000  0.001  0.002  0.001  0.042
   1.00671    -17.995846  0.024  0.000  0.008  0.003  0.002  0.000  0.001  0.003  0.001  0.042
   1.01628    -17.991336  0.023  0.000  0.008  0.003  0.002  0.000  0.001  0.003  0.001  0.042
   1.02586    -17.986881  0.024  0.000  0.008  0.003  0.002  0.000  0.001  0.003  0.001  0.042
   1.03543    -17.982448  0.023  0.001  0.008  0.003  0.002  0.000  0.001  0.003  0.001  0.042
   1.04500    -17.978087  0.023  0.001  0.008  0.003  0.002  0.000  0.001  0.003  0.001  0.042
   1.05458    -17.973727  0.022  0.001  0.007  0.003  0.003  0.000  0.001  0.003  0.001  0.042
   1.06415    -17.969451  0.022  0.001  0.007  0.003  0.003  0.000  0.001  0.003  0.001  0.041
   1.07372    -17.965243  0.022  0.001  0.007  0.004  0.003  0.000  0.001  0.004  0.001  0.042
   1.08329    -17.961142  0.022  0.001  0.006  0.004  0.003  0.000  0.001  0.004  0.001  0.042
   1.09287    -17.957181  0.022  0.001  0.006  0.004  0.003  0.000  0.001  0.004  0.001  0.042
   1.10244    -17.953270  0.021  0.001  0.006  0.004  0.003  0.000  0.001  0.004  0.001  0.042
   1.11201    -17.949529  0.021  0.001  0.006  0.004  0.003  0.000  0.001  0.004  0.001  0.042
   1.12158    -17.945940  0.020  0.001  0.006  0.004  0.003  0.000  0.001  0.004  0.001  0.042
   1.13116    -17.942601  0.021  0.001  0.006  0.004  0.003  0.001  0.000  0.004  0.001  0.042
   1.14073    -17.939415  0.020  0.002  0.006  0.004  0.004  0.001  0.000  0.004  0.001  0.043
   1.15030    -17.936361  0.020  0.002  0.005  0.004  0.004  0.001  0.000  0.005  0.001  0.043
   1.15987    -17.933530  0.019  0.002  0.005  0.004  0.004  0.001  0.000  0.005  0.001  0.043
   1.16945    -17.930952  0.020  0.002  0.005  0.005  0.004  0.001  0.000  0.005  0.001  0.043
   1.17902    -17.928540  0.019  0.002  0.005  0.005  0.004  0.001  0.000  0.005  0.002  0.043
   1.18859    -17.926422  0.019  0.002  0.005  0.005  0.004  0.001  0.000  0.005  0.002  0.043
   1.19817    -17.924548  0.018  0.003  0.005  0.005  0.004  0.001  0.000  0.005  0.002  0.043
   1.20774    -17.922967  0.018  0.003  0.005  0.005  0.004  0.001  0.000  0.005  0.002  0.043
   1.21731    -17.921601  0.019  0.003  0.004  0.005  0.004  0.001  0.000  0.005  0.002  0.043
   1.22688    -17.920553  0.018  0.003  0.004  0.005  0.004  0.001  0.000  0.005  0.002  0.043
   1.23646    -17.919773  0.018  0.003  0.004  0.005  0.004  0.001  0.000  0.005  0.002  0.043
   1.23646    -17.919773  0.018  0.005  0.004  0.004  0.004  0.005  0.000  0.001  0.002  0.043
   1.24587    -17.919235  0.018  0.005  0.004  0.004  0.004  0.005  0.000  0.001  0.002  0.043
   1.25527    -17.919041  0.018  0.005  0.003  0.004  0.004  0.005  0.000  0.001  0.002  0.043
   1.26468    -17.919127  0.018  0.005  0.003  0.004  0.004  0.005  0.000  0.001  0.002  0.043
   1.27409    -17.919479  0.018  0.005  0.003  0.004  0.004  0.005  0.000  0.001  0.002  0.043
   1.28350    -17.920156  0.017  0.005  0.003  0.005  0.004  0.005  0.000  0.001  0.002  0.043
   1.29291    -17.921071  0.017  0.005  0.003  0.005  0.004  0.005  0.000  0.001  0.002  0.043
   1.30232    -17.922215  0.017  0.005  0.003  0.005  0.004  0.005  0.000  0.001  0.003  0.043
   1.31173    -17.923605  0.018  0.005  0.003  0.005  0.004  0.005  0.000  0.001  0.003  0.043
   1.32114    -17.925232  0.018  0.005  0.003  0.005  0.004  0.005  0.000  0.001  0.003  0.043
   1.33055    -17.927098  0.017  0.004  0.003  0.005  0.004  0.005  0.000  0.001  0.003  0.042
   1.33996    -17.929214  0.017  0.004  0.003  0.006  0.004  0.005  0.000  0.001  0.003  0.042
   1.34937    -17.931524  0.017  0.004  0.002  0.006  0.004  0.004  0.000  0.001  0.003  0.043
   1.35878    -17.933912  0.017  0.004  0.002  0.006  0.003  0.004  0.000  0.001  0.003  0.043
   1.36819    -17.936629  0.017  0.004  0.002  0.006  0.003  0.004  0.000  0.001  0.003  0.043
   1.37760    -17.939432  0.018  0.004  0.002  0.006  0.003  0.004  0.000  0.001  0.003  0.043
   1.38700    -17.942422  0.018  0.004  0.002  0.006  0.003  0.004  0.000  0.001  0.003  0.043
   1.39641    -17.945464  0.018  0.004  0.002  0.006  0.003  0.004  0.000  0.001  0.003  0.043
   1.40582    -17.948670  0.018  0.004  0.002  0.007  0.003  0.004  0.000  0.001  0.003  0.042
   1.41523    -17.951965  0.018  0.004  0.002  0.007  0.003  0.004  0.000  0.001  0.003  0.042
   1.42464    -17.955399  0.018  0.004  0.002  0.007  0.003  0.003  0.000  0.001  0.002  0.042
   1.43405    -17.958868  0.018  0.004  0.002  0.007  0.003  0.003  0.000  0.001  0.002  0.042
   1.44346    -17.962411  0.018  0.004  0.002  0.007  0.003  0.003  0.000  0.001  0.002  0.042
   1.45287    -17.965953  0.018  0.004  0.002  0.007  0.003  0.003  0.000  0.001  0.002  0.042
   1.46228    -17.969574  0.018  0.004  0.002  0.007  0.003  0.003  0.000  0.001  0.002  0.042
   1.47169    -17.973194  0.019  0.003  0.002  0.007  0.003  0.003  0.000  0.001  0.002  0.042
   1.48110    -17.976783  0.019  0.003  0.002  0.008  0.003  0.003  0.000  0.001  0.002  0.042
   1.49051    -17.980435  0.019  0.003  0.002  0.008  0.003  0.002  0.000  0.001  0.002  0.042
   1.49992    -17.984076  0.019  0.003  0.002  0.008  0.002  0.002  0.000  0.001  0.002  0.042
   1.50932    -17.987695  0.019  0.003  0.002  0.008  0.002  0.002  0.000  0.001  0.002  0.041
   1.51873    -17.991284  0.019  0.003  0.002  0.008  0.002  0.002  0.000  0.001  0.002  0.041
   1.52814    -17.994820  0.019  0.003  0.002  0.008  0.002  0.002  0.000  0.001  0.002  0.041
   1.53755    -17.998319  0.020  0.003  0.002  0.008  0.002  0.002  0.000  0.001  0.002  0.041
   1.54696    -18.001694  0.020  0.003  0.002  0.008  0.002  0.002  0.000  0.001  0.002  0.041
   1.55637    -18.005110  0.020  0.003  0.002  0.009  0.002  0.002  0.000  0.001  0.002  0.041
   1.56578    -18.008385  0.020  0.003  0.002  0.009  0.002  0.001  0.000  0.001  0.002  0.041
   1.57519    -18.011638  0.020  0.003  0.002  0.009  0.002  0.001  0.000  0.001  0.002  0.041
   1.58460    -18.014724  0.020  0.002  0.002  0.009  0.002  0.001  0.000  0.002  0.002  0.041
   1.59401    -18.017696  0.020  0.002  0.002  0.009  0.002  0.001  0.000  0.002  0.002  0.041
   1.60342    -18.020614  0.021  0.002  0.002  0.009  0.002  0.001  0.000  0.002  0.002  0.041
   1.61283    -18.023440  0.021  0.002  0.002  0.009  0.002  0.001  0.000  0.002  0.002  0.041
   1.62224    -18.026159  0.021  0.002  0.002  0.010  0.002  0.001  0.000  0.002  0.002  0.041
   1.63165    -18.028819  0.021  0.002  0.002  0.010  0.002  0.001  0.000  0.002  0.002  0.041
   1.64105    -18.031279  0.021  0.002  0.002  0.010  0.002  0.001  0.000  0.002  0.002  0.041
   1.65046    -18.033622  0.021  0.002  0.002  0.010  0.002  0.001  0.000  0.002  0.002  0.041
   1.65987    -18.035795  0.021  0.002  0.002  0.010  0.002  0.000  0.000  0.002  0.002  0.041
   1.66928    -18.037871  0.021  0.002  0.002  0.010  0.002  0.000  0.000  0.002  0.002  0.041
   1.67869    -18.039787  0.022  0.002  0.002  0.010  0.002  0.000  0.000  0.002  0.002  0.041
   1.68810    -18.041627  0.022  0.002  0.002  0.010  0.001  0.000  0.000  0.002  0.002  0.041
   1.69751    -18.043219  0.022  0.002  0.002  0.010  0.001  0.000  0.000  0.002  0.002  0.041
   1.70692    -18.044717  0.022  0.002  0.002  0.010  0.001  0.000  0.000  0.002  0.002  0.041
   1.71633    -18.046063  0.022  0.002  0.002  0.010  0.001  0.000  0.000  0.002  0.002  0.041
   1.72574    -18.047161  0.022  0.002  0.002  0.010  0.001  0.000  0.000  0.002  0.002  0.041
   1.73515    -18.048199  0.022  0.002  0.002  0.010  0.001  0.000  0.000  0.002  0.002  0.041
   1.74456    -18.049089  0.022  0.002  0.002  0.010  0.001  0.000  0.000  0.002  0.002  0.041
   1.75397    -18.049823  0.022  0.002  0.002  0.010  0.001  0.000  0.000  0.002  0.002  0.041
   1.76338    -18.050366  0.022  0.002  0.002  0.010  0.001  0.000  0.000  0.002  0.002  0.041
   1.77278    -18.050768  0.022  0.002  0.002  0.010  0.001  0.000  0.000  0.002  0.002  0.041
   1.78219    -18.050970  0.022  0.002  0.002  0.010  0.001  0.000  0.000  0.002  0.002  0.041
   1.79160    -18.051043  0.022  0.002  0.002  0.010  0.001  0.000  0.000  0.002  0.002  0.041
   1.79160    -18.051043  0.022  0.002  0.002  0.010  0.001  0.000  0.000  0.002  0.002  0.041
   1.80320    -18.059050  0.023  0.001  0.003  0.010  0.001  0.000  0.000  0.001  0.001  0.041
   1.81480    -18.075504  0.024  0.002  0.002  0.008  0.001  0.000  0.000  0.001  0.001  0.041
   1.82640    -18.094239  0.025  0.002  0.002  0.008  0.001  0.000  0.000  0.001  0.001  0.042
   1.83799    -18.113634  0.026  0.002  0.002  0.008  0.001  0.000  0.000  0.001  0.001  0.042
   1.84959    -18.133274  0.027  0.002  0.002  0.008  0.001  0.000  0.000  0.001  0.001  0.042
   1.86119    -18.152969  0.027  0.002  0.002  0.008  0.001  0.000  0.000  0.001  0.001  0.042
   1.87279    -18.172675  0.028  0.002  0.002  0.007  0.001  0.000  0.000  0.001  0.001  0.042
   1.88438    -18.192347  0.028  0.002  0.002  0.007  0.001  0.000  0.000  0.001  0.001  0.042
   1.89598    -18.211860  0.029  0.002  0.002  0.007  0.001  0.000  0.000  0.001  0.001  0.042
   1.90758    -18.231168  0.030  0.002  0.002  0.007  0.000  0.000  0.000  0.001  0.001  0.043
   1.91918    -18.250288  0.031  0.002  0.001  0.006  0.000  0.000  0.000  0.001  0.001  0.043
   1.93077    -18.269275  0.031  0.002  0.001  0.006  0.000  0.000  0.000  0.001  0.001  0.043
   1.94237    -18.288048  0.031  0.002  0.001  0.005  0.000  0.000  0.000  0.001  0.001  0.043
   1.95397    -18.306638  0.033  0.002  0.001  0.005  0.000  0.000  0.000  0.001  0.001  0.043
   1.96557    -18.324937  0.033  0.002  0.001  0.005  0.000  0.000  0.000  0.000  0.001  0.043
   1.97716    -18.343031  0.033  0.002  0.001  0.005  0.000  0.000  0.000  0.000  0.001  0.043
   1.98876    -18.360826  0.034  0.002  0.001  0.005  0.000  0.000  0.000  0.000  0.001  0.043
   2.00036    -18.378398  0.035  0.002  0.001  0.005  0.000  0.000  0.000  0.000  0.001  0.044
   2.01196    -18.395642  0.035  0.002  0.000  0.005  0.000  0.000  0.000  0.000  0.001  0.044
   2.02356    -18.412609  0.036  0.002  0.000  0.004  0.000  0.000  0.000  0.000  0.001  0.044
   2.03515    -18.429303  0.036  0.002  0.000  0.004  0.000  0.000  0.000  0.000  0.001  0.044
   2.04675    -18.445624  0.037  0.002  0.000  0.004  0.000  0.000  0.000  0.000  0.000  0.044
   2.05835    -18.461597  0.038  0.002  0.000  0.004  0.000  0.000  0.000  0.000  0.000  0.044
   2.06995    -18.477280  0.038  0.002  0.000  0.004  0.000  0.000  0.000  0.000  0.000  0.045
   2.08154    -18.492597  0.038  0.002  0.000  0.003  0.000  0.000  0.000  0.000  0.000  0.045
   2.09314    -18.507568  0.039  0.001  0.000  0.003  0.000  0.000  0.000  0.000  0.000  0.045
   2.10474    -18.522207  0.040  0.000  0.000  0.003  0.000  0.000  0.000  0.000  0.000  0.045
   2.11634    -18.536496  0.040  0.000  0.000  0.003  0.000  0.000  0.000  0.000  0.000  0.045
